time,posX,posY,posZ,rotX,rotY,rotZ,forX,forY,forZ,angle,miss,out,outf
0.009796143,-0.0003863126,1.470688,-0.2353031,15.00794,0.9362258,1.581275,0.01578216,-0.2589529,0.965761,0.2548778,0,0,0
0.0297966,-0.001186505,1.469661,-0.2339517,15.38852,0.8760453,1.649069,0.01474114,-0.2653629,0.9640359,0.9335608,0,0,0
0.0497961,-0.002696857,1.467222,-0.2312125,16.38518,0.7190834,1.748975,0.01204035,-0.2820933,0.9593114,0.8677295,0,0,0
0.06979656,-0.004289225,1.464645,-0.2285981,17.4884,0.6020092,1.75859,0.0100212,-0.3005127,0.9537252,0.7002546,0,0,0
0.08979702,-0.005180135,1.463243,-0.2271358,18.17162,0.5517316,1.710141,0.009149137,-0.3118643,0.9500826,0.5716401,0,0,0
0.1097965,-0.006201357,1.461555,-0.2255342,18.8017,0.5204612,1.670087,0.008598929,-0.3222937,0.9466007,0.5162413,0,0,0
0.129797,-0.007077143,1.459825,-0.2238347,19.50631,0.4700522,1.663505,0.007733005,-0.3339107,0.942573,0.4776538,0,0,0
0.1497965,-0.008765846,1.456267,-0.2203125,20.98676,0.3809657,1.694487,0.006207979,-0.3581522,0.9336426,0.4205793,0,0,0
0.1697969,-0.009759068,1.454301,-0.2183084,21.66521,0.3573303,1.693372,0.00579598,-0.3691825,0.9293388,0.3202056,0,0,0
0.1897964,-0.01164962,1.45012,-0.2141748,23.00504,0.3017608,1.684113,0.004847838,-0.3908122,0.9204577,0.289391,0,0,0
0.2097969,-0.01255885,1.448424,-0.2118048,23.77954,0.2955289,1.747367,0.004720041,-0.4032186,0.9150915,0.220287,0,0,0
0.2297964,-0.0145117,1.445007,-0.206734,25.25341,0.3303695,1.678995,0.005214945,-0.4266226,0.9044147,0.2093567,0,0,0
0.2497969,-0.01547027,1.443078,-0.2039331,25.86336,0.3455008,1.662554,0.005426098,-0.4362264,0.8998206,0.2289973,0,0,0
0.2697964,-0.01650035,1.441108,-0.2011321,26.4922,0.356536,1.600673,0.005569274,-0.446076,0.8949778,0.2373883,0,0,0
0.2897968,-0.01854593,1.437207,-0.1953404,27.79526,0.3921118,1.495012,0.006053973,-0.4663134,0.8845989,0.2406627,0,0,0
0.3097963,-0.02068053,1.434224,-0.1882354,28.82592,0.4621117,1.414254,0.007065902,-0.48215,0.8760601,0.2631872,0,0,0
0.3297968,-0.02181801,1.432729,-0.1842978,29.21799,0.4681942,1.349475,0.007131779,-0.4881337,0.8727397,0.3177519,0,0,0
0.3497963,-0.02295022,1.431006,-0.1803761,29.62541,0.484562,1.284377,0.007351555,-0.4943275,0.8692447,0.315279,0,0,0
0.3697968,-0.02415035,1.429493,-0.1763477,30.03253,0.5015095,1.248409,0.007577732,-0.5004916,0.8657083,0.3238513,0,0,0
0.3897963,-0.02738032,1.425194,-0.1628502,30.7735,0.5241565,1.051149,0.007860042,-0.5116456,0.8591607,0.3316129,0,0,0
0.4097967,-0.02839698,1.423667,-0.1574924,30.6328,0.5751937,0.9546607,0.008637939,-0.5095341,0.8604071,0.332791,0,0,0
0.4297962,-0.02930503,1.421962,-0.1521345,30.50114,0.5863791,0.8435317,0.008817868,-0.5075555,0.8615739,0.3763854,0,0,0
0.4497967,-0.03012085,1.420377,-0.1464641,30.35168,0.6028676,0.7810792,0.009079712,-0.5053062,0.8628924,0.3810355,0,0,0
0.4697962,-0.03150056,1.417592,-0.1343582,30.25428,0.6447962,0.7614254,0.009720819,-0.5038384,0.8637432,0.3906707,0,0,0
0.4897966,-0.0327721,1.41498,-0.1220417,30.43305,0.6982231,0.6959665,0.01050702,-0.5065312,0.8621576,0.4228991,0,0,0
0.5097961,-0.03324015,1.414292,-0.1154988,30.59841,0.7497185,0.6905527,0.01126272,-0.5090175,0.8606825,0.4668813,0,0,0
0.5297966,-0.03367589,1.413843,-0.1085612,30.66723,0.8208635,0.7285148,0.01232267,-0.510051,0.8600559,0.5147229,0,0,0
0.5497961,-0.03418033,1.413209,-0.09428802,30.71099,0.9269472,0.8150367,0.01390874,-0.5107078,0.8596418,0.5831623,0,0,0
0.5697966,-0.03434973,1.412854,-0.08653864,30.58549,1.005153,0.8266339,0.01510168,-0.5088233,0.8607385,0.6849989,0,0,0
0.589797,-0.03436854,1.412449,-0.07826635,30.31644,1.078349,0.8710538,0.01624607,-0.5047754,0.8630978,0.7620752,0,0,0
0.6097965,-0.03394876,1.410497,-0.05194291,28.99845,1.077419,1.08258,0.01644607,-0.4847859,0.8744782,0.8346253,0,0,0
0.629797,-0.03362738,1.408991,-0.04265705,28.44893,0.9744554,1.103727,0.01495295,-0.4763752,0.8791149,0.8360308,0,0,0
0.6497965,-0.03327746,1.407423,-0.0334383,28.12875,0.9195371,1.087217,0.01415281,-0.4714544,0.8817769,0.7346201,0,0,0
0.6697969,-0.03271541,1.406222,-0.0238553,27.89739,0.8355097,1.029403,0.01288727,-0.4678895,0.883693,0.6821364,0,0,0
0.6897964,-0.03128707,1.404141,-0.003745347,27.27078,0.5899773,0.8461486,0.009152379,-0.4581963,0.888804,0.6023093,0,0,0
0.7097969,-0.03029422,1.403135,0.006637871,26.95592,0.4581041,0.7217704,0.007126691,-0.453305,0.891327,0.3658403,0,0,0
0.7297964,-0.02918515,1.402257,0.01719996,26.61791,0.3635305,0.5666412,0.005672307,-0.4480385,0.8939962,0.2406627,0,0,0
0.7497969,-0.02672288,1.400697,0.03843093,25.85472,0.207867,0.3617913,0.003264807,-0.4360907,0.8998968,0.1545051,0,0,0
0.7697964,-0.02316918,1.400654,0.06056589,24.84513,-0.04159546,0.323288,-0.0006585998,-0.4201671,0.9074465,0.01978234,0,0,0
0.7897968,-0.02113542,1.401077,0.0717333,24.21145,-0.210907,0.2903031,-0.00335732,-0.4101054,0.912032,0.20842,0,0,0
0.8097963,-0.01921079,1.401963,0.08304083,23.49781,-0.3599548,0.2308323,-0.005761271,-0.3987139,0.9170573,0.3631561,0,0,0
0.8297968,-0.01507032,1.405901,0.106213,22.36249,-0.7189636,0.1786749,-0.01160408,-0.380465,0.9247225,0.4992853,0,0,0
0.8497963,-0.01276153,1.410428,0.1187953,22.26276,-0.9856567,0.1891942,-0.01592002,-0.3788546,0.9253193,0.828271,0,0,0
0.8697968,-0.008427836,1.416614,0.1423361,21.46687,-1.300232,-0.05249023,-0.02111734,-0.3659632,0.9303897,1.07829,0,0,0
0.8897963,-0.006906085,1.419439,0.1527231,21.21259,-1.281372,-0.1004333,-0.02084737,-0.3618294,0.9320112,1.361713,0,0,0
0.9097967,-0.004048236,1.427119,0.1738055,20.98448,-1.370026,-0.08847046,-0.02232334,-0.358115,0.9334106,1.33178,0,0,0
0.9297962,-0.002817564,1.429718,0.1839816,20.77944,-1.568787,0.1033432,-0.02559604,-0.3547715,0.9346026,1.399836,0,0,0
0.9497967,-0.001651406,1.43194,0.1944022,20.43597,-1.746826,0.2980787,-0.02856482,-0.3491604,0.9366275,1.589424,0,0,0
0.9697962,-0.0005611181,1.434998,0.2051293,20.2006,-1.884094,0.4836228,-0.03085532,-0.345308,0.9379821,1.759141,0,0,0
0.9897966,0.002016827,1.445254,0.238123,19.80344,-2.096222,0.7198429,-0.03441473,-0.3387944,0.9402308,1.888237,0,0,0
1.009796,0.002519727,1.447519,0.2489719,19.87112,-2.144501,0.7467253,-0.03519169,-0.3399055,0.9398009,2.081119,0,0,0
1.029797,0.002970412,1.449179,0.2596397,19.99431,-2.239532,0.7035589,-0.03672202,-0.3419268,0.9390088,2.12578,0,0,0
1.049796,0.003924005,1.45164,0.2813278,20.46729,-2.446198,0.723545,-0.03998708,-0.3496725,0.9360183,2.217438,0,0,0
1.069797,0.004328385,1.452043,0.2924566,20.72868,-2.550446,0.724604,-0.04161835,-0.3539431,0.9343405,2.417109,0,0,0
1.089797,0.004674867,1.452001,0.3037121,20.99915,-2.625763,0.7450329,-0.04276957,-0.358354,0.9326056,2.518239,0,0,0
1.109797,0.005391248,1.451563,0.326471,21.59141,-2.777069,0.7944113,-0.04505021,-0.3679852,0.9287397,2.590877,0,0,0
1.129797,0.005617958,1.450392,0.3510252,22.23221,-2.90976,0.9791756,-0.04698914,-0.3783612,0.9244646,2.736881,0,0,0
1.149796,0.005554941,1.449321,0.3640501,22.35681,-3.001556,1.123746,-0.04842731,-0.3803734,0.9235643,2.867579,0,0,0
1.169797,0.005432855,1.44803,0.3769447,22.53311,-3.086304,1.240496,-0.04972972,-0.3832172,0.9223186,2.959889,0,0,0
1.189796,0.004984905,1.446609,0.3900039,22.82242,-3.148651,1.317754,-0.05062651,-0.3878762,0.92032,3.045426,0,0,0
1.209797,0.003234693,1.441411,0.4299274,23.83557,-3.337524,1.492341,-0.05325256,-0.4041132,0.9131575,3.111183,0,0,0
1.229796,0.002319593,1.439101,0.4436148,24.28463,-3.437286,1.584328,-0.05465062,-0.4112698,0.9098738,3.313044,0,0,0
1.249797,0.001276758,1.437033,0.4575415,24.68696,-3.531982,1.696869,-0.0559751,-0.4176603,0.9068774,3.419649,0,0,0
1.269796,0.0001165457,1.435175,0.4718993,24.98056,-3.6427,1.785027,-0.05759064,-0.4223107,0.9046198,3.522311,0,0,0
1.289797,-0.002768165,1.431345,0.5008289,25.18102,-3.784241,1.941078,-0.0597275,-0.4254795,0.9029949,3.641854,0,0,0
1.309796,-0.004434038,1.42918,0.5153868,25.13771,-3.794189,1.98461,-0.05990547,-0.4247953,0.9033052,3.805394,0,0,0
1.329797,-0.006300643,1.427257,0.5302449,25.17519,-3.78125,2.000276,-0.05968302,-0.4253875,0.9030412,3.828173,0,0,0
1.349796,-0.01028551,1.423927,0.5605305,25.37455,-3.754181,2.015452,-0.05915937,-0.4285338,0.9015869,3.829605,0,0,0
1.369797,-0.01459213,1.421817,0.5916653,25.44631,-3.561981,1.90109,-0.05610103,-0.4296652,0.9012439,3.833438,0,0,0
1.389796,-0.01675553,1.420788,0.6067346,25.54592,-3.455933,1.844461,-0.05438787,-0.4312343,0.9005992,3.67477,0,0,0
1.409797,-0.01880729,1.420393,0.6213958,25.92603,-3.367798,1.687539,-0.05283326,-0.4372104,0.897806,3.585776,0,0,0
1.429796,-0.0205997,1.421827,0.6367481,26.47626,-3.24353,1.603296,-0.05064584,-0.4458269,0.8936853,3.513908,0,0,0
1.449797,-0.02604674,1.423329,0.6833488,26.42234,-2.563812,0.686779,-0.04005926,-0.4449843,0.894642,3.403868,0,0,0
1.469796,-0.027486,1.423425,0.6989567,25.7805,-2.341522,0.706129,-0.03678941,-0.4349247,0.899715,2.767677,0,0,0
1.489797,-0.02869507,1.424573,0.7143845,25.59827,-2.294434,0.9175159,-0.03610536,-0.4320586,0.9011226,2.55719,0,0,0
1.509796,-0.02968258,1.426069,0.7295496,25.86163,-2.31723,1.165389,-0.03638311,-0.4361992,0.8991143,2.520259,0,0,0
1.529797,-0.03149637,1.427465,0.7589046,26.51168,-2.090485,1.339394,-0.03264202,-0.4463803,0.8942478,2.551136,0,0,0
1.549796,-0.03313228,1.428762,0.7880307,26.95709,-1.724945,1.451399,-0.02683056,-0.4533231,0.8909423,2.33967,0,0,0
1.569797,-0.0340447,1.429529,0.8022787,27.33468,-1.568817,1.423046,-0.02432074,-0.4591873,0.8880065,1.988102,0,0,0
1.589796,-0.03486855,1.430291,0.8165008,27.70015,-1.437775,1.323357,-0.02221575,-0.4648444,0.8851137,1.839837,0,0,0
1.609797,-0.03652753,1.430767,0.8454377,27.90435,-1.145111,1.213988,-0.01766086,-0.4679969,0.8835536,1.71589,0,0,0
1.629797,-0.03742232,1.430729,0.8602893,27.69275,-1.00116,1.127948,-0.01547115,-0.4647299,0.8853173,1.43763,0,0,0
1.649796,-0.03826293,1.430533,0.8752229,27.52084,-0.868042,1.103806,-0.01343535,-0.4620713,0.886741,1.301459,0,0,0
1.669797,-0.04074723,1.428649,0.9200992,27.37011,-0.5961914,1.064073,-0.009240382,-0.4597366,0.8880072,1.175531,0,0,0
1.689796,-0.04138119,1.427672,0.9352997,27.41007,-0.5860596,1.135908,-0.009080299,-0.4603558,0.8876881,0.9259842,0,0,0
1.709797,-0.04196147,1.426713,0.9505904,27.46615,-0.568634,1.255934,-0.008805618,-0.4612246,0.8872398,0.9215358,0,0,0
1.729796,-0.04253177,1.425345,0.9660053,27.49059,-0.6072388,1.313266,-0.009401616,-0.4616029,0.8870369,0.9097822,0,0,0
1.749797,-0.04345745,1.422465,0.9975013,27.32041,-0.7052612,1.290141,-0.01093559,-0.4589661,0.8883865,0.9536759,0,0,0
1.769796,-0.04407486,1.419521,1.029379,27.03829,-0.8070984,1.181676,-0.01254647,-0.4545858,0.8906146,1.060725,0,0,0
1.789797,-0.04385382,1.418222,1.045703,26.7812,-0.8881531,1.024221,-0.0138381,-0.4505846,0.8926265,1.169356,0,0,0
1.809796,-0.04341453,1.417183,1.062203,26.46713,-0.9201355,0.906244,-0.01437578,-0.4456844,0.8950747,1.249448,0,0,0
1.829797,-0.04273662,1.416259,1.078928,25.95639,-0.9310303,0.8435636,-0.01460959,-0.4376868,0.8990088,1.278554,0,0,0
1.849796,-0.04092875,1.415313,1.11242,24.94467,-1.190643,0.7758143,-0.01884055,-0.4217428,0.9065198,1.284813,0,0,0
1.869797,-0.0396098,1.415798,1.129441,24.34128,-1.429718,0.8623454,-0.02273269,-0.4121709,0.9108229,1.531102,0,0,0
1.889796,-0.03715758,1.415741,1.162403,23.33291,-1.836243,0.8486574,-0.02942273,-0.396073,0.9177475,1.759919,0,0,0
1.909797,-0.03470105,1.418243,1.193822,23.13406,-2.424408,0.8460183,-0.03889997,-0.3928839,0.9187649,2.147672,0,0,0
1.929796,-0.03345586,1.424376,1.211077,23.73562,-2.804474,1.036546,-0.04478889,-0.4025169,0.9143162,2.716565,0,0,0
1.949797,-0.03226592,1.426983,1.227767,23.28424,-3.091888,0.9432727,-0.04954445,-0.3952928,0.9172181,3.086799,0,0,0
1.969796,-0.03134878,1.425915,1.241648,22.53698,-3.285858,0.8204751,-0.05294036,-0.3832797,0.9221139,3.364877,0,0,0
1.989797,-0.02905889,1.428573,1.285533,21.06332,-3.366241,0.2646355,-0.0547948,-0.3593995,0.9315737,3.55154,0,0,0
2.009796,-0.02938513,1.434989,1.301417,21.88903,-3.041077,-0.3130493,-0.04922732,-0.3728101,0.9266009,3.614222,0,0,0
2.029797,-0.03000031,1.437636,1.315982,22.10796,-2.798645,-1.2229,-0.04523636,-0.376353,0.9253713,3.292415,0,0,0
2.049796,-0.03001997,1.438794,1.330347,21.91645,-2.575653,-1.429016,-0.04169059,-0.3732542,0.9267919,3.055886,0,0,0
2.069797,-0.03060371,1.444478,1.360175,21.30051,-2.246979,-1.295624,-0.03652876,-0.3632596,0.9309716,2.833587,0,0,0
2.089796,-0.03102609,1.446558,1.37469,21.0047,-2.166809,-1.115356,-0.03529667,-0.3584446,0.9328835,2.511,0,0,0
2.109797,-0.03146566,1.448183,1.389202,20.69868,-2.046173,-0.9124756,-0.03340035,-0.3534533,0.9348557,2.435099,0,0,0
2.129797,-0.03242409,1.45099,1.418468,20.09613,-1.771729,-0.5794067,-0.02903517,-0.3435962,0.9386685,2.319,0,0,0
2.149796,-0.03366582,1.451589,1.448463,19.36061,-1.496521,-0.1300659,-0.02463944,-0.3315127,0.943129,2.054047,0,0,0
2.169797,-0.03416695,1.451341,1.46365,19.07935,-1.417145,0.1766239,-0.02337253,-0.3268773,0.9447777,1.791112,0,0,0
2.189796,-0.03470404,1.450818,1.478966,18.88817,-1.3573,0.4363568,-0.02241166,-0.3237222,0.9458867,1.716574,0,0,0
2.209797,-0.03606451,1.448592,1.50992,18.77607,-1.231049,0.8837825,-0.02034071,-0.3218703,0.9465653,1.662246,0,0,0
2.229796,-0.03769919,1.445148,1.541383,18.68237,-1.078552,1.24493,-0.0178313,-0.3203216,0.947141,1.549145,0,0,0
2.249797,-0.038606,1.443111,1.55758,18.73987,-1.021637,1.483142,-0.01688461,-0.3212721,0.9468364,1.413193,0,0,0
2.269796,-0.03980663,1.44128,1.573869,18.7914,-0.9725647,1.722052,-0.01606875,-0.3221236,0.9465612,1.365014,0,0,0
2.289797,-0.04305349,1.436507,1.605525,18.67949,-1.029846,2.142799,-0.01702637,-0.320274,0.9471719,1.327512,0,0,0
2.309796,-0.04485875,1.433995,1.62123,18.53042,-1.121277,2.308835,-0.01855432,-0.317808,0.9479735,1.415545,0,0,0
2.329797,-0.04867138,1.429142,1.652997,18.2878,-1.17334,2.487706,-0.01944276,-0.3137904,0.9492932,1.524441,0,0,0
2.349796,-0.05085211,1.427819,1.669084,18.17439,-1.116486,2.477022,-0.01851292,-0.3119102,0.9499312,1.61289,0,0,0
2.369797,-0.05573897,1.428051,1.701244,17.76925,-0.9271545,2.256226,-0.01540949,-0.3051843,0.9521686,1.576691,0,0,0
2.389796,-0.0581411,1.42857,1.716701,17.58162,-0.8259277,2.011051,-0.01374143,-0.3020641,0.9531885,1.434223,0,0,0
2.409797,-0.06024189,1.431728,1.732618,17.82226,-0.762146,1.973631,-0.01266331,-0.3060651,0.9519264,1.355952,0,0,0
2.429796,-0.06224008,1.439272,1.750458,18.31074,-0.7689819,2.125821,-0.01274133,-0.3141704,0.9492811,1.312688,0,0,0
2.449797,-0.0683745,1.445396,1.79836,17.11963,-0.4737244,1.21975,-0.007901444,-0.2943677,0.9556596,1.339691,0,0,0
2.469796,-0.06889643,1.445889,1.813486,16.04401,-0.5319824,1.642553,-0.008922902,-0.2763756,0.9610083,1.105353,0,0,0
2.489797,-0.06978406,1.448587,1.829045,15.86083,-0.742981,2.124633,-0.01247319,-0.2733016,0.9618475,1.169858,0,0,0
2.509796,-0.07051386,1.452063,1.844801,16.1784,-1.077942,2.47681,-0.01806729,-0.2786292,0.9602288,1.39072,0,0,0
2.529797,-0.0717629,1.455439,1.875559,16.42735,-1.055695,2.433415,-0.01767218,-0.2827994,0.9590163,1.734268,0,0,0
2.549796,-0.07248808,1.459169,1.907178,16.19876,-0.7674866,2.269045,-0.01286306,-0.2789702,0.9602136,1.727144,0,0,0
2.569797,-0.07297929,1.461152,1.923329,16.08813,-0.5852051,2.020342,-0.009813376,-0.2771155,0.9607865,1.449019,0,0,0
2.589796,-0.07333796,1.462402,1.939137,16.00395,-0.519104,1.762145,-0.008708806,-0.2757037,0.9612032,1.273339,0,0,0
2.609797,-0.07407539,1.462628,1.970171,15.8646,-0.3631897,1.226183,-0.006097135,-0.273365,0.9618911,1.212085,0,0,0
2.629797,-0.07430489,1.461759,1.985821,15.83562,-0.2961731,1.005566,-0.004972924,-0.2728783,0.9620357,1.066612,0,0,0
2.649796,-0.07447796,1.46083,2.00163,15.92407,-0.2687683,0.8450477,-0.004510918,-0.2743632,0.9616156,1.004052,0,0,0
2.669797,-0.07496248,1.458755,2.033417,16.01817,-0.27771,0.5958551,-0.004658966,-0.2759421,0.961163,0.9803861,0,0,0
2.689796,-0.07528318,1.455829,2.066578,16.05217,-0.4327698,0.5101465,-0.00725854,-0.2765125,0.9609829,0.9972074,0,0,0
2.709797,-0.07536124,1.453577,2.083483,16.01827,-0.5003967,0.5296736,-0.008394609,-0.2759438,0.9611371,1.159778,0,0,0
2.729796,-0.07529958,1.451214,2.100543,15.96486,-0.5690613,0.5657331,-0.009548752,-0.2750478,0.9613831,1.230193,0,0,0
2.749797,-0.07512011,1.44913,2.117778,15.88289,-0.6447754,0.586818,-0.01082379,-0.273672,0.9617622,1.300256,0,0,0
2.769796,-0.07397224,1.441959,2.169198,15.68277,-0.8978882,0.6585698,-0.01508709,-0.2703109,0.9626549,1.376293,0,0,0
2.789797,-0.07268713,1.439983,2.185689,15.67984,-1.049957,0.6595294,-0.01764221,-0.2702616,0.9626253,1.624617,0,0,0
2.809796,-0.07134466,1.438537,2.202519,15.51666,-1.060486,0.5266359,-0.01783334,-0.2675186,0.9633877,1.766246,0,0,0
2.829797,-0.06972845,1.437665,2.21972,15.24392,-0.9975586,0.4507026,-0.01679705,-0.2629289,0.964669,1.76536,0,0,0
2.849796,-0.06598924,1.438107,2.254481,14.78548,-0.9840698,0.6555313,-0.01660572,-0.2552007,0.9667455,1.688759,0,0,0
2.869797,-0.06216933,1.43779,2.287981,14.40958,-0.96521,0.4797492,-0.01631529,-0.2488519,0.9684041,1.64211,0,0,0
2.889796,-0.0598395,1.438759,2.304039,14.4941,-0.8561707,0.5066617,-0.01446684,-0.2502803,0.9680653,1.588685,0,0,0
2.909797,-0.0577191,1.440369,2.320034,14.68577,-0.7803955,0.682202,-0.01317493,-0.2535177,0.967241,1.45804,0,0,0
2.929796,-0.05322395,1.448774,2.353235,15.26313,-1.0979,1.59648,-0.01848509,-0.2632524,0.9645499,1.362718,0,0,0
2.949797,-0.05138518,1.447344,2.368094,14.8171,-1.255707,1.606491,-0.02118577,-0.2557343,0.9665149,1.637694,0,0,0
2.969796,-0.04952322,1.446867,2.383047,14.3228,-1.229034,1.627148,-0.02078223,-0.2473845,0.9686944,1.778393,0,0,0
2.989797,-0.04596208,1.449588,2.41314,14.30629,-0.9654541,1.863837,-0.01632718,-0.2471054,0.968851,1.734042,0,0,0
3.009796,-0.04406376,1.457781,2.443952,15.21322,-0.7045898,1.209653,-0.01186639,-0.2624118,0.964883,1.436813,0,0,0
3.029797,-0.04313727,1.459966,2.459155,15.21481,-0.6314392,0.9464704,-0.01063401,-0.2624385,0.9648901,1.159103,0,0,0
3.049796,-0.04220779,1.462169,2.474489,15.03692,-0.5157166,0.8295068,-0.008692415,-0.2594413,0.9657198,1.077563,0,0,0
3.069797,-0.04129238,1.46455,2.489776,14.93826,-0.4243469,0.7928883,-0.007156045,-0.257778,0.9661776,0.9532654,0,0,0
3.089796,-0.03963043,1.469036,2.520179,14.84238,-0.3009949,0.811681,-0.005078205,-0.2561608,0.9666209,0.8538629,0,0,0
3.109797,-0.03787149,1.470728,2.551244,14.57235,-0.2955017,1.08437,-0.004991361,-0.2516023,0.9678178,0.7154584,0,0,0
3.129796,-0.03698595,1.470942,2.567383,14.3377,-0.2928467,1.242926,-0.004951921,-0.2476365,0.9688404,0.6935157,0,0,0
3.149796,-0.03613813,1.470937,2.58396,14.00022,-0.3156128,1.43167,-0.005344594,-0.2419256,0.9702801,0.6829963,0,0,0
3.169797,-0.0353253,1.47048,2.600878,13.62368,-0.3576355,1.56107,-0.006066354,-0.2355438,0.9718448,0.6980155,0,0,0
3.189796,-0.03280117,1.466898,2.652102,12.91291,-0.4371338,1.752629,-0.007436513,-0.2234698,0.9746825,0.7324861,0,0,0
3.209797,-0.03194176,1.464382,2.669506,13.02312,-0.4145813,1.682841,-0.007049527,-0.2253443,0.9742537,0.7888232,0,0,0
3.229796,-0.03128691,1.46154,2.686718,13.34016,-0.3912048,1.573744,-0.006643553,-0.2307317,0.9729947,0.7579558,0,0,0
3.249797,-0.03069772,1.45796,2.703928,13.84837,-0.3612061,1.42325,-0.006120872,-0.2393532,0.9709133,0.7284679,0,0,0
3.269796,-0.03033497,1.449868,2.737746,15.27123,-0.2536011,1.101053,-0.004269996,-0.2633887,0.9646803,0.6929511,0,0,0
3.289797,-0.03029059,1.442538,2.771868,16.50926,-0.1859741,1.028189,-0.003112205,-0.2841703,0.9587688,0.583833,0,0,0
3.309796,-0.03078069,1.438729,2.789276,16.89251,-0.1811218,0.9925606,-0.00302457,-0.2905771,0.9568468,0.518133,0,0,0
3.329797,-0.03135656,1.435963,2.806803,17.23395,-0.1914673,0.884509,-0.003191606,-0.2962741,0.9550976,0.5188877,0,0,0
3.349796,-0.03303243,1.433458,2.841153,18.15033,0.08864863,0.3137169,0.001470225,-0.3115112,0.9502413,0.5370479,0,0,0
3.369797,-0.03401168,1.432503,2.857946,18.34025,0.2817191,0.01593142,0.00466715,-0.3146593,0.9491932,0.2776587,0,0,0
3.389796,-0.0347525,1.432933,2.874954,18.53885,0.4664083,-0.1378784,0.007717859,-0.3179476,0.9480769,0.09487279,0,0,0
3.409797,-0.03575976,1.439184,2.910272,19.56751,0.7662326,-0.2215576,0.01260057,-0.3349173,0.9421633,0.07661668,0,0,0
