time,posX,posY,posZ,rotX,rotY,rotZ,forX,forY,forZ,angle,miss,out,outf
0.01031494,0.09287763,1.515667,4.6638,-10.34314,-2.544098,-0.8020935,-0.04366705,0.1795429,0.9827805,4.148976,0,0,19997
0.03030396,0.09297085,1.515675,4.664021,-10.34222,-2.518036,-0.8273621,-0.04322013,0.179527,0.9828032,0.9495632,0,0,19997
0.05029297,0.0930264,1.515736,4.664265,-10.36719,-2.514099,-0.8226624,-0.04314936,0.1799559,0.9827278,0.9217481,0,0,19997
0.0703125,0.09303331,1.515769,4.664383,-10.36719,-2.519287,-0.8117065,-0.04323822,0.1799561,0.9827239,0.916639,0,0,19997
0.09030151,0.0930022,1.515765,4.664493,-10.37012,-2.522278,-0.8055725,-0.04328908,0.1800063,0.9827124,0.9215358,0,0,19997
0.1102905,0.09296966,1.515755,4.664604,-10.37,-2.53125,-0.7976379,-0.04344286,0.1800043,0.9827061,0.9251386,0,0,19997
0.1303101,0.092875,1.515746,4.665019,-10.36658,-2.561584,-0.7868652,-0.04396387,0.1799456,0.9826936,0.9343988,0,0,19997
0.1502991,0.09281647,1.515711,4.665168,-10.36505,-2.590332,-0.7563477,-0.04445712,0.1799193,0.9826763,0.9661109,0,0,19997
0.1702881,0.09276879,1.515744,4.665345,-10.39145,-2.629547,-0.7263489,-0.04512594,0.1803726,0.9825627,0.9960293,0,0,19997
0.1903076,0.09272885,1.515835,4.665538,-10.44809,-2.644684,-0.7507935,-0.04537693,0.1813445,0.9823722,1.035899,0,0,19997
0.2102966,0.09269619,1.515876,4.665731,-10.46149,-2.655365,-0.769928,-0.0455581,0.1815745,0.9823213,1.051461,0,0,19997
0.2302856,0.09269726,1.515794,4.666164,-10.38998,-2.685638,-0.7492371,-0.04608756,0.1803471,0.9825227,1.062568,0,0,19997
0.2503052,0.09269142,1.515736,4.666346,-10.36664,-2.680511,-0.752594,-0.04600316,0.1799466,0.9826001,1.09289,0,0,19997
0.2702942,0.0926863,1.515691,4.666536,-10.34451,-2.666595,-0.7463989,-0.04576761,0.1795666,0.9826806,1.087865,0,0,19997
0.2903137,0.09270597,1.515669,4.666722,-10.33307,-2.651306,-0.747406,-0.04550743,0.1793701,0.9827285,1.074108,0,0,19997
0.3103027,0.09276009,1.515648,4.667363,-10.35187,-2.637512,-0.7105103,-0.04526819,0.179693,0.9826806,1.058324,0,0,19997
0.3302917,0.09277523,1.515645,4.667603,-10.32452,-2.64328,-0.7152405,-0.04537083,0.1792234,0.9827617,1.04324,0,0,19997
0.3503113,0.09280562,1.51557,4.667844,-10.26004,-2.662598,-0.7008057,-0.04571137,0.178116,0.9829472,1.048479,0,0,19997
0.3703003,0.09285057,1.515509,4.668096,-10.24521,-2.668488,-0.7115784,-0.04581481,0.1778613,0.9829885,1.067346,0,0,19997
0.3902893,0.09295475,1.515326,4.668899,-10.13721,-2.68576,-0.747406,-0.04612667,0.1760061,0.9833078,1.072284,0,0,19997
0.4103088,0.09304786,1.515216,4.66918,-10.05362,-2.657318,-0.7507019,-0.04565046,0.17457,0.983586,1.087146,0,0,19997
0.4302979,0.09316123,1.515016,4.669546,-10.00998,-2.626099,-0.7428284,-0.04512069,0.1738198,0.9837433,1.057029,0,0,19997
0.4502869,0.09328902,1.514933,4.669912,-9.944672,-2.613922,-0.7449646,-0.04492025,0.1726973,0.9839501,1.02412,0,0,19997
0.4703064,0.09336412,1.514868,4.670208,-9.870026,-2.586884,-0.7319641,-0.04446615,0.1714135,0.9841952,1.0093,0,0,19997
0.4902954,0.09352636,1.514697,4.670907,-9.762177,-2.554749,-0.7289734,-0.0439286,0.1695587,0.9845406,0.9805858,0,0,19997
0.5103149,0.09373164,1.514419,4.671677,-9.632111,-2.562103,-0.7174072,-0.0440718,0.1673211,0.9849169,0.9454328,0,0,19997
0.530304,0.09379327,1.514385,4.672132,-9.546539,-2.563721,-0.740387,-0.04411094,0.1658488,0.9851642,0.949151,0,0,19997
0.550293,0.09398866,1.514294,4.672466,-9.468628,-2.602478,-0.7428284,-0.04478776,0.1645076,0.9853585,0.9495632,0,0,19997
0.5703125,0.09407258,1.514165,4.67294,-9.413361,-2.581177,-0.7750854,-0.04442839,0.1635561,0.9855331,0.9845687,0,0,19997
0.5903015,0.09469223,1.513775,4.674218,-9.224396,-2.546753,-0.8153381,-0.04386003,0.1603016,0.9860932,0.9614412,0,0,19997
0.6102905,0.0948503,1.513653,4.674713,-9.176453,-2.477814,-0.8329468,-0.04267927,0.1594756,0.9862789,0.9155711,0,0,19997
0.6303101,0.09513962,1.513524,4.675059,-9.097504,-2.430725,-0.8329163,-0.04187798,0.1581151,0.9865322,0.844183,0,0,19997
0.6502991,0.09536731,1.513469,4.675564,-9.036407,-2.382355,-0.8520813,-0.04105202,0.1570622,0.9867351,0.7912999,0,0,19997
0.6702881,0.09591985,1.513365,4.676472,-8.913635,-2.327423,-0.85849,-0.04011944,0.1549452,0.9871081,0.7393991,0,0,19997
0.6903076,0.09652233,1.513511,4.677593,-8.856049,-2.306915,-0.8840332,-0.03977237,0.1539527,0.9872774,0.6743467,0,0,19997
0.7102966,0.09685385,1.513544,4.678199,-8.884949,-2.32309,-0.9277344,-0.04004804,0.1544509,0.9871885,0.6425489,0,0,19997
0.7302856,0.09727609,1.513625,4.678901,-8.903809,-2.335907,-0.9237061,-0.04026675,0.1547761,0.9871286,0.6528208,0,0,19997
0.7503052,0.09767914,1.513712,4.679677,-8.941833,-2.318604,-0.9110718,-0.03996435,0.1554319,0.9870379,0.6584912,0,0,19997
0.7702942,0.09851599,1.513774,4.681236,-9.01593,-2.337189,-0.8899536,-0.04027662,0.1567088,0.9868233,0.633656,0,0,19997
0.7903137,0.09973967,1.513689,4.682866,-8.936584,-2.366211,-0.7857666,-0.04078512,0.1553414,0.9870185,0.6367366,0,0,19997
0.8103027,0.1004134,1.513619,4.683864,-8.904327,-2.396698,-0.7368774,-0.04131386,0.1547852,0.9870839,0.6437659,0,0,19997
0.8302917,0.10118,1.513572,4.684902,-8.90683,-2.418243,-0.6867981,-0.04168494,0.1548281,0.9870616,0.6620474,0,0,19997
0.8503113,0.1028056,1.513505,4.687031,-8.875763,-2.455231,-0.6003113,-0.04232587,0.1542924,0.9871182,0.6705639,0,0,19997
0.8703003,0.1038325,1.513359,4.688291,-8.871582,-2.476044,-0.5220642,-0.04268459,0.1542205,0.987114,0.6778198,0,0,19997
0.8902893,0.1061472,1.512882,4.690828,-8.749054,-2.532532,-0.3821411,-0.04367238,0.1521069,0.9873987,0.680413,0,0,19997
0.9103088,0.1074483,1.51272,4.692105,-8.655396,-2.562408,-0.3386536,-0.0441984,0.1504914,0.9876228,0.6952065,0,0,19997
0.9302979,0.1088383,1.512581,4.693449,-8.554474,-2.603241,-0.2599792,-0.04491432,0.1487494,0.9878544,0.7016503,0,0,19997
0.9502869,0.1116619,1.512218,4.696179,-8.37207,-2.718536,-0.1301575,-0.04692437,0.1456009,0.98823,0.7181882,0,0,19997
0.9703064,0.1150278,1.511768,4.699005,-8.134125,-2.984528,-0.01147461,-0.05154243,0.1414909,0.9885969,0.7828471,0,0,19997
0.9902954,0.116802,1.511685,4.700453,-8.044891,-3.158539,0.01199998,-0.05455659,0.1399491,0.9886546,0.9889315,0,0,19997
1.010315,0.1187068,1.511564,4.701917,-7.974823,-3.292389,0.08837263,-0.05687618,0.138738,0.9886945,1.131077,0,0,19997
1.030304,0.1225682,1.511366,4.704853,-7.825439,-3.555756,0.2107721,-0.06144207,0.1361556,0.9887803,1.231306,0,0,19997
1.050293,0.1246929,1.511102,4.706302,-7.789551,-3.699005,0.2978681,-0.06391992,0.1355348,0.9887086,1.425464,0,0,19997
1.070313,0.1291007,1.510676,4.709257,-7.719238,-3.964783,0.4997797,-0.06851678,0.134319,0.9885666,1.531102,0,0,19997
1.090302,0.1312956,1.510269,4.710737,-7.70929,-4.12262,0.6401021,-0.07124151,0.1341466,0.9883974,1.71817,0,0,19997
1.110291,0.1334639,1.510059,4.712125,-7.668976,-4.36142,0.7568638,-0.0753674,0.1334498,0.9881856,1.83675,0,0,19997
1.13031,0.1378915,1.509687,4.714966,-7.649719,-4.814484,0.9183323,-0.08318275,0.1331166,0.9876035,2.03692,0,0,19997
1.150299,0.1421419,1.50964,4.717803,-7.645447,-5.421692,0.9295406,-0.0936455,0.1330427,0.9866763,2.410946,0,0,19997
1.170288,0.1441641,1.510604,4.719347,-7.664948,-5.755219,0.9253631,-0.09938264,0.13338,0.9860694,2.941911,0,0,19997
1.190308,0.146089,1.511164,4.720961,-7.819672,-6.055939,0.9884197,-0.1045182,0.1360557,0.9851725,3.239001,0,0,19997
1.210297,0.1481164,1.5114,4.722602,-7.947723,-6.347778,1.066419,-0.109501,0.1382694,0.9843227,3.504925,0,0,19997
1.230286,0.152148,1.511584,4.72582,-8.13858,-6.884827,1.23901,-0.1186668,0.1415678,0.9827903,3.760152,0,0,19997
1.250305,0.1559602,1.511211,4.729217,-8.279297,-7.352417,1.420994,-0.1266382,0.1439986,0.9814414,4.224243,0,0,19997
1.270294,0.157686,1.511451,4.73111,-8.386475,-7.49762,1.467603,-0.1290896,0.1458493,0.9808486,4.622368,0,0,19997
1.290314,0.1593666,1.511101,4.733049,-8.544159,-7.619995,1.445241,-0.1311309,0.1485718,0.9801689,4.735862,0,0,19997
1.310303,0.1626266,1.510319,4.736858,-8.675598,-7.835175,1.384046,-0.1347638,0.15084,0.9793293,4.827224,0,0,19997
1.330292,0.1640151,1.510415,4.738889,-8.634033,-7.807953,1.344833,-0.1343135,0.1501226,0.9795015,4.982046,0,0,19997
1.350311,0.1663657,1.510989,4.743427,-8.665619,-7.73938,1.174417,-0.1331299,0.1506675,0.9795794,4.928792,0,0,19997
1.3703,0.1674062,1.51064,4.745657,-8.616882,-7.634003,1.125485,-0.1313452,0.1498265,0.9799492,4.814871,0,0,19997
1.390289,0.168437,1.510273,4.748064,-8.53891,-7.537384,1.159781,-0.1297192,0.1484811,0.9803705,4.689264,0,0,19997
1.410309,0.1702046,1.510314,4.753102,-8.525513,-7.378296,1.222931,-0.1270009,0.1482499,0.9807613,4.572347,0,0,19997
1.430298,0.1711743,1.510091,4.759288,-8.947388,-7.154297,1.360579,-0.1230265,0.1555273,0.9801407,4.37757,0,0,19997
1.450287,0.171398,1.509806,4.762443,-9.114227,-7.061707,1.410511,-0.1213861,0.1584034,0.9798846,4.130763,0,0,19997
1.470306,0.1715816,1.509393,4.765714,-9.247803,-6.981842,1.45524,-0.1199747,0.1607044,0.9796837,4.031286,0,0,19997
1.490295,0.1717674,1.508617,4.772465,-9.452148,-6.866821,1.488991,-0.1179385,0.1642236,0.9793473,3.945013,0,0,19997
1.510315,0.1714333,1.508142,4.776199,-9.499939,-6.813812,1.486339,-0.117016,0.1650463,0.9793196,3.82039,0,0,19997
1.530304,0.1699661,1.507945,4.784025,-9.612152,-6.704956,1.63623,-0.1151173,0.1669777,0.9792173,3.769826,0,0,19997
1.550293,0.1690254,1.507714,4.788244,-9.691193,-6.654907,1.705371,-0.1142355,0.1683377,0.9790877,3.679616,0,0,19997
1.570313,0.1672108,1.506917,4.796762,-9.837341,-6.522156,1.789344,-0.1119176,0.1708518,0.9789199,3.642338,0,0,19997
1.590302,0.1657233,1.506402,4.801195,-9.816803,-6.404877,1.807829,-0.1099199,0.1704984,0.9792078,3.534021,0,0,19997
1.610291,0.1641942,1.505865,4.805727,-9.763977,-6.320068,1.901822,-0.1084878,0.16959,0.9795252,3.439117,0,0,19997
1.63031,0.160589,1.504537,4.814976,-9.668579,-6.237183,2.169703,-0.1071013,0.1679486,0.9799605,3.37748,0,0,19997
1.650299,0.1585001,1.504026,4.819716,-9.680817,-6.233612,2.266482,-0.1070363,0.1681592,0.9799315,3.350826,0,0,19997
1.670288,0.154377,1.502813,4.829159,-9.726074,-6.243103,2.430086,-0.1071843,0.1689379,0.9797814,3.380551,0,0,19997
1.690308,0.1519474,1.501725,4.834011,-9.704987,-6.252533,2.457488,-0.1073524,0.168575,0.9798254,3.455814,0,0,19997
1.710297,0.1494848,1.501411,4.838748,-9.622131,-6.281891,2.482821,-0.1078808,0.1671493,0.9800116,3.504869,0,0,19997
1.730286,0.1442885,1.50216,4.848543,-9.32254,-6.152252,2.392795,-0.1057553,0.1619922,0.9811087,3.57462,0,0,19997
1.750305,0.1387906,1.505315,4.858598,-9.254303,-5.940613,2.462313,-0.1021503,0.1608165,0.981684,3.530751,0,0,19997
1.770294,0.1360338,1.506636,4.864289,-9.61618,-5.799438,2.532932,-0.0996268,0.1670471,0.9809026,3.410878,0,0,19997
1.790314,0.1332047,1.508188,4.869614,-9.817688,-5.668579,2.734797,-0.09732769,0.1705137,0.9805368,3.315348,0,0,19997
1.810303,0.1303401,1.508821,4.874713,-9.859985,-5.575592,2.84547,-0.09572399,0.1712409,0.9805679,3.231982,0,0,19997
1.830292,0.1217895,1.511012,4.889554,-9.433502,-5.211426,2.879737,-0.0896027,0.1639027,0.9823987,3.187395,0,0,19997
1.850311,0.1189013,1.51129,4.894352,-9.288635,-5.036438,2.696683,-0.08663831,0.161408,0.9830775,2.969134,0,0,19997
1.8703,0.1159961,1.511843,4.899158,-9.24649,-4.828064,2.412114,-0.08307244,0.1606823,0.983504,2.84393,0,0,19997
1.890289,0.113081,1.512817,4.904146,-9.375549,-4.572876,2.159952,-0.07866207,0.162905,0.983501,2.685694,0,0,19997
1.910309,0.1101487,1.514045,4.909239,-9.747192,-4.307831,1.974319,-0.07403093,0.1693012,0.98278,2.480966,0,0,19997
1.930298,0.1016498,1.517182,4.924215,-10.76697,-3.603851,1.577085,-0.06175091,0.186815,0.9804524,2.266759,0,0,19997
1.950287,0.09904921,1.51707,4.929006,-10.96295,-3.365356,1.48516,-0.05763156,0.1901741,0.9800574,1.710864,0,0,19997
1.970306,0.09652662,1.517021,4.933773,-10.99225,-3.171509,1.475295,-0.05430999,0.1906763,0.9801494,1.518009,0,0,19997
1.990295,0.09412658,1.517074,4.938519,-10.96893,-3.039276,1.530834,-0.05205204,0.1902765,0.9803497,1.368593,0,0,19997
2.010315,0.08726311,1.516838,4.953131,-11.19431,-2.822754,1.624856,-0.04830973,0.1941366,0.9797843,1.278401,0,0,19997
2.030304,0.08513951,1.516868,4.958091,-11.34027,-2.84787,1.605567,-0.04871437,0.1966351,0.9792658,1.182006,0,0,19997
2.050293,0.0833168,1.517086,4.963098,-11.42731,-2.872437,1.617542,-0.04911886,0.1981248,0.9789453,1.244741,0,0,19997
2.070313,0.08151352,1.517609,4.968008,-11.43378,-2.884674,1.667135,-0.04932682,0.198235,0.9789125,1.300858,0,0,19997
2.090302,0.07990348,1.518126,4.972855,-11.47034,-2.907654,1.730438,-0.04971308,0.1988604,0.9787661,1.344503,0,0,19997
2.110291,0.07548237,1.518088,4.98753,-11.32217,-2.908508,1.762535,-0.0497537,0.1963259,0.9792756,1.395496,0,0,19997
2.13031,0.07420886,1.518173,4.992255,-11.14935,-2.913177,1.745309,-0.04986366,0.1933672,0.9798585,1.473128,0,0,19997
2.150299,0.07288361,1.518446,4.997147,-11.02942,-2.945801,1.749838,-0.05044208,0.1913128,0.9802321,1.499852,0,0,19997
2.170288,0.07177472,1.51835,5.001924,-10.95126,-3.047089,1.766755,-0.05218842,0.189974,0.9804011,1.555322,0,0,19997
2.190308,0.06951797,1.517964,5.011508,-10.74463,-3.221252,1.771359,-0.05520666,0.186432,0.9809155,1.675614,0,0,19997
2.210297,0.06799328,1.517944,5.021148,-10.57672,-3.496307,1.752416,-0.05994833,0.1835517,0.9811804,1.888859,0,0,19997
2.230286,0.06742871,1.517834,5.026056,-10.67191,-3.572784,1.703642,-0.06123844,0.1851846,0.9807938,2.188743,0,0,19997
2.250305,0.06698453,1.517479,5.031007,-10.69672,-3.61734,1.695508,-0.06199603,0.1856101,0.9806658,2.273914,0,0,19997
2.270294,0.06614769,1.517127,5.040879,-10.70593,-3.700043,1.69194,-0.06340989,0.1857683,0.9805454,2.3249,0,0,19997
2.290314,0.06597376,1.516856,5.04591,-10.73886,-3.703674,1.677882,-0.06346501,0.1863328,0.9804347,2.419456,0,0,19997
2.310303,0.06598401,1.515962,5.056146,-10.7688,-3.604492,1.653472,-0.06176135,0.1868465,0.9804457,2.424143,0,0,19997
2.330292,0.06615126,1.515395,5.061267,-10.74182,-3.569824,1.632743,-0.06117386,0.186384,0.9805706,2.320434,0,0,19997
2.350311,0.06674826,1.514217,5.071536,-10.74222,-3.532806,1.578473,-0.06054017,0.1863908,0.9806086,2.280274,0,0,19997
2.3703,0.06716287,1.513506,5.076805,-10.78592,-3.500641,1.502847,-0.0599811,0.18714,0.9805003,2.227126,0,0,19997
2.390289,0.06776619,1.512833,5.081957,-10.84476,-3.516998,1.439171,-0.06024931,0.1881488,0.9802908,2.184447,0,0,19997
2.410309,0.06910992,1.5113,5.092441,-10.92337,-3.467896,1.275025,-0.05939332,0.1894961,0.9800835,2.186596,0,0,19997
2.430298,0.07075727,1.509454,5.10306,-10.97733,-3.40567,1.136738,-0.05831795,0.1904207,0.9799688,2.106265,0,0,19997
2.450287,0.07172787,1.507978,5.108223,-10.90982,-3.364014,1.056511,-0.05761858,0.1892639,0.9802343,2.006621,0,0,19997
2.470306,0.07272494,1.506614,5.113391,-10.77426,-3.328094,0.9953946,-0.05702993,0.18694,0.9807146,1.943299,0,0,19997
2.490295,0.07378721,1.506317,5.11874,-10.67337,-3.325043,0.9791186,-0.05699685,0.1852097,0.9810447,1.884917,0,0,19997
2.510315,0.07677042,1.507833,5.135242,-10.44403,-3.360107,0.9469752,-0.05764033,0.1812751,0.9817418,1.857937,0,0,19997
2.530304,0.07782996,1.510342,5.140793,-10.57834,-3.421478,0.9374488,-0.05866611,0.1835795,0.9812527,1.825099,0,0,19997
2.550293,0.07894659,1.509842,5.146585,-10.82071,-3.431213,0.7488651,-0.0587859,0.1877364,0.9804587,1.862356,0,0,19997
2.570313,0.08004451,1.509547,5.152325,-10.76541,-3.392303,0.6227899,-0.05813086,0.1867883,0.9806788,1.846314,0,0,19997
2.590302,0.08112538,1.510733,5.157745,-10.66937,-3.413635,0.4991106,-0.05851429,0.1851415,0.9809682,1.78235,0,0,19997
2.610291,0.08429241,1.512815,5.175144,-10.91199,-3.443481,0.2403415,-0.05897816,0.189301,0.9801463,1.778723,0,0,19997
2.63031,0.08528459,1.512951,5.18107,-10.93909,-3.44101,0.2617901,-0.05893001,0.1897653,0.9800594,1.734381,0,0,19997
2.650299,0.08621931,1.513637,5.186841,-10.9639,-3.470734,0.3871307,-0.05943379,0.1901902,0.9799466,1.708117,0,0,19997
2.670288,0.08707261,1.513808,5.19264,-10.99603,-3.537018,0.555926,-0.06056094,0.1907413,0.9797705,1.71532,0,0,19997
2.690308,0.08907294,1.51447,5.204372,-11.04535,-3.672028,0.8765432,-0.06285871,0.1915859,0.9794609,1.760698,0,0,19997
2.710297,0.09091854,1.515009,5.216123,-11.2218,-3.982422,1.376775,-0.06812277,0.1946078,0.9785127,1.847162,0,0,19997
2.730286,0.09170163,1.515371,5.221971,-11.21118,-4.159882,1.542244,-0.07115561,0.194426,0.978333,2.111832,0,0,19997
2.750305,0.09257805,1.516172,5.227773,-11.20624,-4.370392,1.647495,-0.07475083,0.194341,0.9780817,2.269348,0,0,19997
2.770294,0.09423447,1.516363,5.239576,-11.26105,-4.691254,1.726065,-0.08021161,0.1952796,0.977462,2.457662,0,0,19997
2.790314,0.09485984,1.515542,5.245314,-11.2435,-4.790558,1.637415,-0.08191063,0.1949792,0.9773811,2.736022,0,0,19997
2.810303,0.09559417,1.516077,5.256964,-11.09302,-4.996826,1.623276,-0.08547328,0.1924024,0.9775866,2.818348,0,0,19997
2.830292,0.09579086,1.516711,5.262907,-11.20679,-5.16214,1.746372,-0.08825907,0.1943504,0.9769536,3.000875,0,0,19997
2.850311,0.0962913,1.516655,5.274589,-11.27786,-5.462585,1.827964,-0.09335738,0.1955671,0.9762366,3.157837,0,0,19997
2.8703,0.09614301,1.516853,5.280386,-11.1105,-5.517303,1.75218,-0.09434444,0.1927017,0.9767114,3.43906,0,0,19997
2.890289,0.09593797,1.518322,5.286197,-11.01813,-5.553192,1.709461,-0.09498605,0.1911198,0.97696,3.492558,0,0,19997
2.910309,0.09572959,1.518606,5.292122,-11.1257,-5.593292,1.665174,-0.09563439,0.1929619,0.9765345,3.528476,0,0,19997
2.930298,0.09489012,1.517957,5.309446,-10.85361,-5.684418,1.718887,-0.09727748,0.1883002,0.977282,3.568589,0,0,19997
2.950287,0.09435415,1.518037,5.315188,-10.69449,-5.728668,1.832913,-0.09808379,0.185572,0.9777232,3.664633,0,0,19997
2.970306,0.09369469,1.517509,5.321171,-10.73273,-5.797363,1.882127,-0.09924365,0.1862281,0.9774814,3.715783,0,0,19997
2.990295,0.09292221,1.517332,5.32698,-10.71317,-5.822571,1.885221,-0.0996799,0.1858923,0.9775009,3.794212,0,0,19997
3.010315,0.0919615,1.517379,5.332994,-10.79575,-5.820831,1.832145,-0.09962317,0.1873083,0.9772363,3.831599,0,0,19997
3.030304,0.08845341,1.516832,5.351176,-11.24091,-5.826355,1.707798,-0.09956643,0.1949345,0.9757495,3.845984,0,0,19997
3.050293,0.08693326,1.516128,5.357167,-11.37039,-5.798889,1.686038,-0.09905392,0.1971509,0.9753563,3.913716,0,0,19997
3.070313,0.08521283,1.515192,5.363138,-11.46646,-5.774872,1.691368,-0.09861169,0.1987942,0.9750675,3.914917,0,0,19997
3.090302,0.08334684,1.513898,5.369058,-11.40231,-5.762817,1.738184,-0.09842894,0.1976971,0.975309,3.923959,0,0,19997
3.110291,0.07944024,1.511963,5.380874,-11.30777,-5.726685,1.835557,-0.09784646,0.196079,0.9756942,3.948337,0,0,19997
3.13031,0.07436788,1.509194,5.392671,-11.19144,-5.658783,1.817573,-0.09672865,0.1940879,0.9762036,3.989438,0,0,19997
3.150299,0.07162654,1.507656,5.398435,-11.11411,-5.580139,1.802669,-0.09541432,0.1927634,0.9765953,4.025015,0,0,19997
3.170288,0.06885099,1.507002,5.404109,-10.98465,-5.456268,1.814163,-0.0933438,0.1905458,0.9772304,4.003061,0,0,19997
3.190308,0.06319237,1.504211,5.415874,-11.03189,-5.282562,1.853914,-0.09036618,0.1913555,0.9773521,3.937013,0,0,19997
3.210297,0.05998945,1.506753,5.422293,-10.62637,-5.132446,1.845978,-0.08792441,0.1844037,0.9789099,3.881763,0,0,19997
3.230286,0.05375338,1.510064,5.434444,-11.41385,-4.9375,1.842898,-0.08436671,0.1978941,0.976586,3.799215,0,0,19997
3.250305,0.05111003,1.510598,5.440115,-11.32159,-4.860138,1.93533,-0.08307524,0.1963156,0.9770152,3.737274,0,0,19997
3.270294,0.04559982,1.51319,5.451145,-10.97424,-4.71521,2.010637,-0.08069987,0.1903675,0.9783904,3.716257,0,0,19997
3.290314,0.04320526,1.514323,5.456201,-10.74612,-4.620209,2.013147,-0.07913782,0.1864577,0.9792705,3.690296,0,0,19997
3.310303,0.04101694,1.514101,5.461089,-10.46274,-4.493439,1.964279,-0.07704213,0.1815959,0.9803507,3.647172,0,0,19997
3.330292,0.03653133,1.514569,5.470634,-9.996643,-4.020508,1.553496,-0.06904894,0.1735905,0.9823943,3.567931,0,0,19997
3.350311,0.03238869,1.515218,5.480364,-10.21686,-3.604431,1.252961,-0.06187063,0.1773745,0.9821967,3.193102,0,0,19997
3.3703,0.03041041,1.514487,5.485288,-10.63348,-3.361145,1.035514,-0.05762246,0.1845257,0.981137,2.867988,0,0,19997
