time,posX,posY,posZ,rotX,rotY,rotZ,forX,forY,forZ,angle,miss,out,outf
0.01211548,0.1232301,1.440049,1.105989,10.93391,-5.978851,3.636829,-0.1022706,-0.1896766,0.9765058,176.329,0,0,0
0.03211212,0.1217731,1.441581,1.111646,11.32493,-5.878418,3.520398,-0.1004235,-0.1963727,0.9753732,175.1822,0,0,0
0.05211639,0.1206213,1.442767,1.116498,11.69072,-5.862213,3.462086,-0.1000179,-0.2026288,0.9741345,175.2689,0,0,0
0.07211304,0.1202372,1.443289,1.11833,11.76341,-5.963928,3.456903,-0.10172,-0.2038708,0.973699,175.2759,0,1,1
0.09211731,0.1197745,1.44426,1.120298,11.76048,-6.070526,3.405004,-0.1035327,-0.2038209,0.9735184,175.1742,0,1,1
0.112114,0.1192855,1.445122,1.123313,11.56408,-6.357849,3.303248,-0.1084898,-0.2004637,0.9736756,175.0671,0,1,1
0.1321106,0.1191618,1.446077,1.124779,11.44931,-6.474457,3.23875,-0.1105162,-0.1985009,0.9738499,174.7843,0,1,1
0.1521149,0.1191584,1.446929,1.126067,11.34293,-6.574646,3.186862,-0.1122612,-0.1966808,0.9740195,174.6702,0,1,1
0.1721115,0.1193184,1.447576,1.127831,11.35689,-6.754639,3.172308,-0.1153148,-0.1969198,0.9736145,174.573,0,1,1
0.1921158,0.1193796,1.448519,1.129422,11.38924,-6.960571,3.080384,-0.1187999,-0.1974732,0.9730832,174.3996,0,1,1
0.2121124,0.1195083,1.449444,1.130254,11.45875,-7.077576,3.049084,-0.1207574,-0.1986625,0.9726,174.2001,0,1,1
0.2321167,0.1197459,1.450119,1.130947,11.50536,-7.184204,3.039403,-0.1225467,-0.1994596,0.972213,174.0874,0,1,1
0.2521133,0.1203153,1.450538,1.132082,11.71078,-7.364502,3.032555,-0.1255129,-0.2029714,0.9711071,173.9857,0,1,1
0.2721176,0.120543,1.450528,1.132814,11.83228,-7.409363,3.026377,-0.1262174,-0.2050474,0.9705796,173.8152,0,1,1
0.2921143,0.1208308,1.450562,1.133636,11.95746,-7.430298,2.961365,-0.1265139,-0.2071855,0.9700868,173.7734,0,1,1
0.3121109,0.1213322,1.450587,1.135511,12.1216,-7.39212,2.753061,-0.1257908,-0.2099871,0.9695783,173.7554,0,1,1
0.3321152,0.1219813,1.450582,1.138283,12.15841,-7.127289,2.465898,-0.1212908,-0.2106152,0.9700153,173.7968,0,1,1
0.3521118,0.1223905,1.450318,1.139779,12.14587,-7.002686,2.511975,-0.1191866,-0.2104013,0.9703225,174.06,0,1,1
0.3721161,0.1227889,1.449725,1.141246,12.1802,-6.852081,2.479144,-0.1166209,-0.210987,0.9705071,174.1849,0,1,1
0.3921127,0.1237321,1.448987,1.144618,12.43853,-6.342773,2.31497,-0.107883,-0.215392,0.9705501,174.3347,0,1,1
0.412117,0.124714,1.447719,1.148185,12.78664,-5.820587,2.248695,-0.09889893,-0.221321,0.9701732,174.8381,0,1,1
0.4321136,0.1252586,1.44676,1.150217,13.04947,-5.5354,2.24842,-0.09396983,-0.2257922,0.9696327,175.3543,0,1,1
0.4521103,0.1258119,1.445926,1.152603,13.23316,-5.287201,2.260732,-0.08970153,-0.2289143,0.9693049,175.6362,0,1,1
0.4721146,0.1268102,1.444458,1.158086,13.55355,-4.788269,2.249746,-0.08114929,-0.2343541,0.9687585,175.8824,0,1,1
0.4921112,0.1276243,1.443536,1.161165,13.81844,-4.548035,2.287043,-0.07699989,-0.238846,0.9679998,176.3764,0,1,1
0.5121155,0.1285363,1.442709,1.164445,14.15621,-4.334717,2.388224,-0.07328772,-0.2445663,0.966859,176.6171,0,1,1
0.5321121,0.1303533,1.440855,1.171306,14.81275,-3.913269,2.56118,-0.06597812,-0.2556609,0.9645125,176.8324,0,1,1
0.5521164,0.1329217,1.438948,1.179713,15.57194,-3.655914,2.755306,-0.06142375,-0.2684481,0.9613338,177.2579,0,1,1
0.572113,0.1343387,1.438404,1.184601,15.83398,-3.565369,2.804841,-0.05982763,-0.2728508,0.9601943,177.5304,0,1,1
0.5921173,0.1356952,1.438039,1.189763,16.04255,-3.468933,2.810769,-0.05815074,-0.2763512,0.9592959,177.6308,0,1,1
0.612114,0.1371521,1.437411,1.195198,16.1692,-3.373535,2.789628,-0.05651781,-0.2784748,0.9587792,177.7364,0,1,1
0.6321106,0.142006,1.435723,1.212852,16.44025,-3.138184,2.616166,-0.05250606,-0.2830153,0.9576771,177.842,0,1,1
0.6521149,0.1437063,1.434939,1.220025,16.29987,-3.106995,2.466079,-0.05202217,-0.2806646,0.9583951,178.1137,0,1,1
0.6721115,0.145575,1.434193,1.227248,16.21164,-3.08783,2.396314,-0.051725,-0.2791862,0.9588429,178.1593,0,1,1
0.6921158,0.1475707,1.432833,1.234661,16.1526,-3.068451,2.362676,-0.05141605,-0.2781966,0.959147,178.1947,0,1,1
0.7121124,0.1520001,1.430423,1.250097,16.3202,-2.941833,2.163778,-0.04925399,-0.2810051,0.9584416,178.2313,0,1,1
0.7321167,0.1543589,1.429051,1.258229,16.41776,-2.858063,2.09897,-0.04782898,-0.2826388,0.9580333,178.3939,0,1,1
0.7521133,0.1593024,1.426293,1.274846,16.54652,-2.706085,2.057927,-0.04525752,-0.2847938,0.9575198,178.4964,0,1,1
0.7721176,0.1620055,1.425069,1.283607,16.6207,-2.614716,2.079746,-0.04371351,-0.2860346,0.9572217,178.6882,0,1,1
0.7921143,0.1675726,1.422849,1.301492,16.71156,-2.395538,1.985778,-0.04003262,-0.2875537,0.9569275,178.8011,0,1,1
0.8121109,0.1703907,1.421331,1.310467,16.61948,-2.292328,2.012916,-0.03832693,-0.2860141,0.9574586,179.0643,0,1,1
0.8321152,0.1732999,1.41974,1.319359,16.51611,-2.236755,2.10447,-0.03741864,-0.2842849,0.9580094,179.1899,0,1,1
0.8521118,0.1760516,1.418551,1.328201,16.49727,-2.186005,2.169112,-0.03657358,-0.2839697,0.9581355,179.2699,0,1,1
0.8721161,0.1836876,1.418898,1.35559,16.89326,-1.929016,2.205466,-0.03220898,-0.2905897,0.9563055,179.3439,0,1,1
0.8921127,0.1861327,1.418092,1.364106,16.92925,-1.897278,2.208296,-0.0316729,-0.2911906,0.9561406,179.6655,0,1,1
0.912117,0.1884722,1.417137,1.372872,16.84773,-1.793854,2.210687,-0.0299597,-0.2898292,0.9566094,179.7182,0,1,1
0.9321136,0.190406,1.418109,1.382264,16.62142,-1.604889,2.148636,-0.02683686,-0.2860466,0.9578398,179.8393,0,1,1
0.9521103,0.1934695,1.420292,1.401217,16.04325,-1.314636,1.968614,-0.02204925,-0.276363,0.9608003,179.9558,0,1,1
0.9721146,0.1964787,1.420842,1.418879,15.79224,-1.142487,2.087835,-0.01918641,-0.2721499,0.9620636,179.645,0,1,1
0.9921112,0.1976401,1.420945,1.42735,15.8103,-1.090698,2.265245,-0.01831514,-0.2724532,0.9619947,179.4486,0,1,1
1.012115,0.1993673,1.421992,1.444462,16.01271,-1.062958,2.492262,-0.01783148,-0.2758505,0.9610351,179.3861,0,1,1
1.032112,0.2001809,1.422675,1.453081,16.09305,-1.064606,2.567279,-0.01785155,-0.277198,0.9606469,179.3403,0,1,1
1.052116,0.2008859,1.423624,1.461812,16.19561,-1.040863,2.637178,-0.01744449,-0.2789175,0.9601566,179.3329,0,1,1
1.072113,0.2014295,1.425044,1.47079,16.24532,-1.056122,2.709999,-0.0176958,-0.2797506,0.9599096,179.3014,0,1,1
1.092117,0.2025112,1.426932,1.497686,15.99435,-1.214691,2.839021,-0.02037801,-0.2755426,0.9610729,179.3096,0,1,1
1.112114,0.2026877,1.427519,1.507116,15.72717,-1.333435,2.867975,-0.02239973,-0.2710568,0.9623027,179.4475,0,1,1
1.132111,0.2026418,1.42785,1.516445,15.57516,-1.380371,2.822619,-0.02320522,-0.2685021,0.9629995,179.5585,0,1,1
1.152115,0.2025752,1.427791,1.525716,15.51364,-1.414001,2.741632,-0.02377726,-0.2674678,0.9632734,179.6019,0,1,1
1.172112,0.2016613,1.427301,1.544616,15.53637,-1.429596,2.543197,-0.02403701,-0.26785,0.9631608,179.632,0,1,1
1.192116,0.2001587,1.42687,1.563832,15.46388,-1.47522,2.280001,-0.02481237,-0.2666309,0.9634793,179.6511,0,1,1
1.212112,0.1989504,1.426444,1.573926,15.32826,-1.46106,2.206972,-0.02459039,-0.2643486,0.9641137,179.7033,0,1,1
1.232117,0.197549,1.425817,1.584112,15.13517,-1.464142,2.190589,-0.02466512,-0.2610971,0.9649974,179.6967,0,1,1
1.252113,0.1941323,1.424186,1.60453,14.92784,-1.535004,2.279643,-0.02588351,-0.2576023,0.9659043,179.7093,0,1,1
1.272118,0.1920037,1.423428,1.61508,14.83453,-1.511078,2.237185,-0.02549128,-0.2560284,0.9663331,179.8032,0,1,1
1.292114,0.1897382,1.42259,1.625823,14.72242,-1.49649,2.221872,-0.0252582,-0.2541365,0.9668385,179.7944,0,1,1
1.312111,0.184908,1.420886,1.647483,14.48228,-1.509491,2.207216,-0.02550563,-0.2500805,0.9678891,179.7983,0,1,1
1.332115,0.1789689,1.419357,1.66989,14.25862,-1.426514,2.243477,-0.02412762,-0.2462991,0.9688935,179.8455,0,1,1
1.352112,0.1756463,1.418603,1.681251,14.18132,-1.35965,2.226329,-0.02300483,-0.2449913,0.9692523,179.8113,0,1,1
1.372116,0.1720322,1.41768,1.69271,14.09126,-1.295349,2.190249,-0.02192591,-0.2434671,0.9696613,179.7753,0,1,1
1.392113,0.1641184,1.416276,1.715858,13.85467,-1.209747,2.095376,-0.02049819,-0.23946,0.9706898,179.7413,0,1,1
1.412117,0.155414,1.414768,1.739505,13.47785,-1.170227,1.999888,-0.01986028,-0.2330694,0.9722573,179.7224,0,1,1
1.432114,0.1504896,1.413733,1.751587,13.2128,-1.188263,1.967934,-0.02018844,-0.2285684,0.9733185,179.7553,0,1,1
1.45211,0.1452529,1.413201,1.763669,12.93266,-1.222534,1.85458,-0.02079456,-0.2238058,0.9744119,179.8144,0,1,1
1.472115,0.1340941,1.416884,1.790735,13.00438,-1.123169,1.57808,-0.01909908,-0.2250255,0.9741657,179.8899,0,1,1
1.492111,0.1281093,1.420044,1.804242,11.98025,-1.160431,1.412735,-0.0198108,-0.2075745,0.9780186,179.8899,0,1,1
1.512115,0.1171044,1.418254,1.830265,11.47466,-1.446625,1.675073,-0.02474113,-0.1989346,0.9797004,179.9802,0,1,1
1.532112,0.1115321,1.420732,1.843873,11.60011,-1.692566,2.114954,-0.02893304,-0.2010799,0.9791475,179.6517,0,1,1
1.552116,0.1005484,1.426014,1.870671,11.3371,-2.404999,1.751998,-0.04114408,-0.196581,0.979624,179.3657,0,1,1
1.572113,0.09590387,1.425758,1.883053,11.51857,-2.733002,1.793762,-0.04672137,-0.1996855,0.9787455,178.5802,0,1,1
1.592117,0.0912106,1.427266,1.895504,11.73683,-2.975342,1.740444,-0.05082092,-0.2034167,0.9777724,178.2221,0,1,1
1.612114,0.08642888,1.428794,1.90831,11.74378,-3.180786,1.554524,-0.05432502,-0.2035355,0.9775593,177.9465,0,1,1
1.632111,0.07360137,1.432154,1.945599,11.50751,-3.833557,1.424253,-0.06551426,-0.1994964,0.977706,177.7058,0,1,1
1.652115,0.06999278,1.433244,1.957489,11.63613,-4.024475,1.561597,-0.06874,-0.2016956,0.9770331,176.9613,0,1,1
1.672112,0.06632376,1.434559,1.969235,11.85079,-4.137756,1.555316,-0.07061704,-0.2053637,0.9761347,176.7447,0,1,1
1.692116,0.06295216,1.435335,1.980414,12.09,-4.238037,1.580491,-0.07226113,-0.2094479,0.9751461,176.6025,0,1,1
1.712112,0.0565393,1.43753,2.002974,12.44705,-4.303131,1.658805,-0.07326936,-0.2155373,0.9737429,176.4756,0,1,1
1.732117,0.05028284,1.43996,2.025723,12.52652,-4.31546,1.615086,-0.07345647,-0.2168914,0.9734281,176.3556,0,1,1
1.752113,0.04751682,1.440906,2.037065,12.3457,-4.178619,1.57086,-0.07118115,-0.2138097,0.9742786,176.288,0,1,1
1.772118,0.04484308,1.441505,2.048316,12.14619,-4.007599,1.57072,-0.06832429,-0.2104068,0.9752234,176.3958,0,1,1
1.792114,0.03950477,1.442238,2.071104,11.68955,-3.638275,1.568978,-0.06214124,-0.2026087,0.9772862,176.5378,0,1,1
1.812111,0.0369525,1.442196,2.082534,11.45461,-3.486481,1.645986,-0.05960164,-0.1985915,0.9782684,176.8476,0,1,1
1.832115,0.03201485,1.441936,2.105265,11.1522,-3.209229,1.793019,-0.05492527,-0.1934159,0.9795782,176.9717,0,1,1
1.852112,0.02973092,1.440883,2.116571,11.08565,-3.013092,1.933504,-0.05158326,-0.1922761,0.9799842,177.1952,0,1,1
1.872116,0.02533102,1.438303,2.13943,11.02125,-2.669159,2.173393,-0.04570986,-0.191173,0.9804915,177.3643,0,1,1
1.892113,0.02310288,1.436757,2.15101,11.03882,-2.562958,2.300253,-0.04388959,-0.191474,0.9805159,177.6569,0,1,1
1.912117,0.02096105,1.435179,2.162587,11.09056,-2.540466,2.377963,-0.04349694,-0.1923602,0.9803599,177.7391,0,1,1
1.932114,0.01677597,1.43209,2.185835,11.08525,-2.462006,2.519791,-0.04215545,-0.1922693,0.9804363,177.7412,0,1,1
1.95211,0.01273823,1.430144,2.20999,11.1143,-2.59256,2.690692,-0.04438482,-0.1927668,0.9802402,177.7782,0,1,1
1.972115,0.01062727,1.429461,2.222272,11.01107,-2.746582,2.670212,-0.04703626,-0.1909987,0.9804627,177.6144,0,1,1
1.992111,0.00857985,1.428457,2.23461,10.79695,-2.886292,2.580897,-0.04946281,-0.1873289,0.9810511,177.4456,0,1,1
2.012115,0.006530404,1.427683,2.247154,10.48568,-2.988495,2.497325,-0.05126455,-0.1819898,0.9819632,177.2912,0,1,1
2.032112,0.004455209,1.427107,2.259693,10.19211,-3.093842,2.45031,-0.05311974,-0.1769492,0.9827855,177.1731,0,1,1
2.052116,-0.002376556,1.4314,2.29921,10.1321,-3.357788,2.434558,-0.05765774,-0.1759183,0.9827148,177.0517,0,1,1
2.072113,-0.005073667,1.437141,2.313178,10.05674,-3.51825,2.487442,-0.06042368,-0.1746234,0.9827796,176.7312,0,1,1
2.092117,-0.007388115,1.436135,2.324799,10.14542,-3.700562,2.533457,-0.06353302,-0.1761471,0.9823114,176.55,0,1,1
2.112114,-0.00978148,1.43495,2.336536,10.21493,-3.762085,2.612348,-0.06457365,-0.1773413,0.9820287,176.3514,0,1,1
2.132111,-0.01888931,1.439965,2.373045,10.38088,-3.477905,2.169153,-0.05967088,-0.1801909,0.98182,176.2685,0,1,1
2.152115,-0.0225141,1.442814,2.38618,9.90719,-3.46936,2.109584,-0.05961224,-0.1720527,0.9832824,176.4536,0,1,1
2.172112,-0.02607858,1.44429,2.398486,9.282685,-3.570984,2.188279,-0.06146931,-0.1613056,0.9849883,176.4263,0,1,1
2.192116,-0.02970552,1.444948,2.410386,8.901649,-3.669952,2.256574,-0.06323774,-0.1547388,0.9859294,176.2928,0,1,1
2.212112,-0.03711677,1.44642,2.434101,8.554545,-3.737183,2.346191,-0.06445478,-0.1487509,0.9867719,176.1613,0,1,1
2.232117,-0.04445302,1.447161,2.457319,8.488217,-3.738831,2.513845,-0.06449447,-0.147606,0.9869412,176.022,0,1,1
2.252113,-0.04802835,1.447333,2.468313,8.873168,-3.714325,2.688298,-0.0640064,-0.1542477,0.9859568,175.9462,0,1,1
2.272118,-0.05178297,1.447379,2.479238,9.251538,-3.710876,2.818364,-0.06387977,-0.1607691,0.9849227,175.9333,0,1,1
2.292114,-0.05972588,1.447547,2.501341,9.846572,-3.877411,3.111789,-0.06662602,-0.1710104,0.9830139,175.8983,0,1,1
2.312111,-0.06796992,1.447945,2.523938,9.95115,-4.13269,3.346373,-0.0709821,-0.1728085,0.9823944,175.6558,0,1,1
2.332115,-0.07243264,1.447798,2.535696,9.562381,-4.322906,3.332982,-0.07433024,-0.1661213,0.9832999,175.3242,0,1,1
2.352112,-0.07686687,1.447266,2.547333,9.123009,-4.484497,3.270621,-0.07720006,-0.1585546,0.9843275,175.0944,0,1,1
2.372116,-0.08139515,1.446477,2.558747,8.78998,-4.590363,3.179649,-0.07909112,-0.152813,0.9850852,174.8926,0,1,1
2.392113,-0.08994162,1.44375,2.581069,8.485894,-4.739441,3.146812,-0.08172008,-0.1475659,0.9856704,174.7433,0,1,1
2.412117,-0.09439909,1.442713,2.592266,8.515048,-4.669006,3.051466,-0.08050233,-0.1480692,0.9856951,174.5098,0,1,1
2.432114,-0.1036441,1.440545,2.614615,8.547445,-4.560181,2.924823,-0.07862296,-0.1486283,0.9857627,174.5306,0,1,1
2.45211,-0.1083684,1.439275,2.625564,8.671322,-4.452759,2.905928,-0.07674941,-0.150766,0.9855857,174.5375,0,1,1
2.472115,-0.117925,1.436266,2.647193,8.69718,-4.160736,2.901226,-0.07172023,-0.1512122,0.9858961,174.5908,0,1,1
2.492111,-0.1229525,1.434848,2.65789,8.661547,-3.925781,2.868408,-0.06768341,-0.1505973,0.9862755,174.7701,0,1,1
2.512115,-0.1281112,1.433509,2.668509,8.59717,-3.647095,2.817018,-0.06289626,-0.1494865,0.9867613,174.9426,0,1,1
2.532112,-0.1384578,1.430949,2.689676,8.574531,-3.192535,2.706385,-0.05506874,-0.1490958,0.9872881,175.1558,0,1,1
2.552116,-0.1502638,1.438719,2.71336,8.440625,-2.558807,2.126105,-0.04416099,-0.1467844,0.9881822,175.482,0,1,1
2.572113,-0.1555791,1.435631,2.723889,8.341672,-2.368988,1.979878,-0.04089771,-0.1450759,0.9885749,175.964,0,1,1
2.592117,-0.1608441,1.44,2.736181,8.290488,-2.078033,2.345113,-0.03588189,-0.1441919,0.988899,176.0885,0,1,1
2.612114,-0.1663833,1.444069,2.747969,8.008016,-2.007477,2.468843,-0.03468829,-0.1393116,0.9896408,176.3103,0,1,1
2.632111,-0.1806141,1.445646,2.780369,7.947026,-1.987976,3.153203,-0.03435659,-0.1382575,0.9898002,176.3167,0,1,1
2.652115,-0.1845647,1.448432,2.791673,8.032448,-2.033295,3.557144,-0.03513234,-0.1397339,0.9895657,176.1752,0,1,1
2.672112,-0.1887732,1.45042,2.803297,7.781462,-2.012878,3.354003,-0.0348006,-0.135395,0.9901804,176.0858,0,1,1
2.692116,-0.1922087,1.451726,2.814757,7.470929,-1.973785,3.331003,-0.03415007,-0.1300231,0.9909227,176.0569,0,1,1
2.712112,-0.19533,1.452934,2.826092,7.260053,-1.926758,3.412374,-0.03335251,-0.126373,0.9914219,176.054,0,1,1
2.732117,-0.2041502,1.455875,2.859705,6.970173,-1.767578,3.477412,-0.03061697,-0.1213526,0.9921371,176.0619,0,1,1
2.752113,-0.2065498,1.45605,2.870603,7.006386,-1.730591,3.408421,-0.02997451,-0.12198,0.9920799,176.1082,0,1,1
2.772118,-0.2087741,1.455883,2.881414,7.123017,-1.675934,3.313035,-0.02902067,-0.1240001,0.9918578,176.1137,0,1,1
2.792114,-0.2130302,1.455712,2.903381,7.203696,-1.474945,3.071794,-0.02553688,-0.1253972,0.9917779,176.1379,0,1,1
2.812111,-0.214752,1.455064,2.914409,7.074853,-1.388733,2.998664,-0.02405099,-0.1231659,0.9920946,176.2763,0,1,1
2.832115,-0.2180706,1.453464,2.936358,6.896322,-1.213959,2.941047,-0.02103258,-0.1200731,0.9925422,176.336,0,1,1
2.852112,-0.2193002,1.452197,2.947514,6.754426,-1.12149,2.963645,-0.01943652,-0.1176141,0.9928691,176.4588,0,1,1
2.872116,-0.220366,1.450656,2.958805,6.594648,-1.045074,2.964905,-0.01811845,-0.1148444,0.9932182,176.5294,0,1,1
2.892113,-0.2220912,1.447256,2.981531,6.32996,-0.9700012,2.987351,-0.0168255,-0.110254,0.993761,176.5862,0,1,1
2.912117,-0.222681,1.445598,2.992947,6.227401,-0.9825745,2.953185,-0.01704689,-0.1084748,0.993953,176.6293,0,1,1
2.932114,-0.2236357,1.441679,3.015775,5.994017,-0.9451294,2.848158,-0.01640478,-0.1044246,0.9943975,176.6056,0,1,1
2.95211,-0.223587,1.43939,3.02718,5.942551,-0.9173584,2.782352,-0.01592397,-0.1035312,0.9944987,176.6204,1,1,1
2.972115,-0.2230536,1.435394,3.050246,5.89695,-0.8178711,2.729913,-0.01419841,-0.1027396,0.994607,176.6424,1,1,1
2.992111,-0.2226862,1.433663,3.061939,5.896602,-0.773407,2.781157,-0.01342665,-0.1027335,0.9946183,176.733,1,1,1
3.012115,-0.2220461,1.432162,3.073646,5.893729,-0.7688293,2.825612,-0.01334718,-0.1026837,0.9946245,176.7743,1,1,1
3.032112,-0.2206606,1.429398,3.097211,5.868777,-0.6987,2.808439,-0.01213028,-0.1022505,0.9946847,176.7802,1,1,1
3.052116,-0.2184724,1.4285,3.121507,5.670693,-0.6636353,2.849542,-0.01152565,-0.09881077,0.9950395,176.8518,1,1,1
3.072113,-0.2173364,1.428263,3.133668,5.448098,-0.6956177,2.938008,-0.01208592,-0.09494402,0.9954093,176.8985,1,1,1
3.092117,-0.2161861,1.427777,3.145677,5.257552,-0.7510681,2.968112,-0.01305324,-0.09163289,0.9957073,176.8748,1,1,1
3.112114,-0.2149994,1.42942,3.158501,5.314618,-0.7706909,3.071293,-0.01339278,-0.09262463,0.995611,176.8288,1,1,1
3.132111,-0.2115375,1.435852,3.19687,4.836678,-1.166595,3.324731,-0.0202868,-0.08431573,0.9962326,176.8173,1,1,1
3.152115,-0.210259,1.437182,3.209968,4.741138,-1.264557,3.417794,-0.02199332,-0.08265407,0.9963356,176.4583,1,1,1
3.172112,-0.2094983,1.440982,3.223173,4.730935,-1.300629,3.544136,-0.02262122,-0.0824766,0.9963362,176.3728,1,1,1
3.192116,-0.209139,1.442089,3.23574,4.904415,-1.408478,3.266662,-0.02449027,-0.08549369,0.9960377,176.3406,1,1,1
3.212112,-0.208697,1.442747,3.248333,5.14209,-1.458374,3.1421,-0.02534823,-0.08962597,0.9956529,176.2352,1,1,1
3.232117,-0.2077057,1.446555,3.28594,6.104823,-1.623413,3.342713,-0.02816965,-0.1063478,0.9939299,176.1864,1,1,1
3.252113,-0.2080256,1.44913,3.29953,5.982435,-1.746765,3.647593,-0.03031617,-0.1042236,0.9940917,176.0212,1,1,1
3.272118,-0.2085547,1.450259,3.312926,5.591897,-1.916534,3.752042,-0.03328448,-0.09744214,0.9946845,175.8927,1,1,1
3.292114,-0.2090487,1.451098,3.326157,5.401469,-2.01062,3.73589,-0.03492889,-0.09413384,0.9949466,175.7173,1,1,1
3.312111,-0.2116497,1.4539,3.365499,5.346747,-2.219299,3.694076,-0.03855582,-0.09318296,0.9949022,175.6148,1,1,1
3.332115,-0.2129751,1.453387,3.378344,5.67067,-2.400269,3.810794,-0.04167548,-0.09881036,0.9942332,175.3646,1,1,1
3.352112,-0.2140839,1.453179,3.390965,6.139969,-2.618408,3.988731,-0.04542204,-0.1069577,0.9932255,175.1689,1,1,1
3.372116,-0.2152183,1.452614,3.40351,6.691921,-2.816559,4.138123,-0.04880343,-0.1165307,0.9919873,174.9399,1,1,1
3.392113,-0.2177393,1.451031,3.428832,7.641228,-3.074005,4.268857,-0.0531494,-0.1329696,0.989694,174.7299,1,1,1
3.412117,-0.2204319,1.449246,3.454392,8.341957,-3.300476,4.432998,-0.05696295,-0.1450808,0.9877787,174.4394,1,1,1
3.432114,-0.221934,1.448236,3.46738,8.502039,-3.469208,4.481857,-0.05984731,-0.1478446,0.9871982,174.1761,1,1,1
3.45211,-0.2234367,1.447025,3.480409,8.507785,-3.655029,4.553502,-0.06304733,-0.1479438,0.9869841,173.9892,1,1,1
3.472115,-0.2266801,1.44353,3.506287,8.459752,-3.980438,4.677595,-0.06866044,-0.1471146,0.9867335,173.7858,1,1,1
3.492111,-0.2283778,1.441357,3.518965,8.481957,-4.116211,4.642605,-0.07099453,-0.147498,0.9865111,173.4204,1,1,1
3.512115,-0.2318423,1.437189,3.54442,8.649194,-4.310669,4.582002,-0.07430974,-0.1503842,0.985831,173.2626,1,1,1
