time,posX,posY,posZ,rotX,rotY,rotZ,forX,forY,forZ,angle,miss,out,outf
0.01184082,0.0412235,1.559348,4.08204,-0.422821,-3.052765,1.73538,-0.05325433,0.007379536,0.9985537,176.2103,0,0,5899
0.03184509,0.04136159,1.559319,4.08203,-0.390564,-3.049896,1.734853,-0.05320413,0.006816596,0.9985604,177.669,0,0,5900
0.05183411,0.04151259,1.559247,4.082021,-0.3479004,-3.066986,1.755268,-0.05350221,0.006071947,0.9985493,177.6736,0,0,5901
0.07183838,0.04156855,1.559243,4.08202,-0.3535461,-3.104736,1.74902,-0.0541601,0.00617046,0.9985132,177.6596,0,0,5902
0.09184265,0.04163094,1.559255,4.082016,-0.3556519,-3.15332,1.748005,-0.05500713,0.006207102,0.9984667,177.6244,0,0,5903
0.1118317,0.04169373,1.559278,4.082005,-0.3514404,-3.223724,1.723542,-0.05623372,0.006133876,0.9983988,177.5792,0,0,5904
0.1318359,0.04167944,1.55928,4.081979,-0.3537292,-3.245483,1.724448,-0.0566132,0.006173639,0.9983771,177.5129,0,0,5905
0.1518402,0.04167737,1.559278,4.081943,-0.349823,-3.254425,1.742012,-0.05676907,0.006105418,0.9983687,177.4919,0,0,5906
0.1718445,0.0416877,1.559278,4.081899,-0.3528748,-3.271942,1.736328,-0.05707388,0.006158546,0.998351,177.4834,0,1,5907
0.1918335,0.04166337,1.55928,4.081876,-0.3572388,-3.263214,1.742816,-0.05692193,0.006235145,0.9983591,177.467,0,1,5908
0.2118378,0.04162125,1.5593,4.081778,-0.3601379,-3.271271,1.776506,-0.05706238,0.006285555,0.9983508,177.475,0,1,5909
0.231842,0.04156798,1.559307,4.081748,-0.3734436,-3.268066,1.787686,-0.05700656,0.006517702,0.9983525,177.4664,0,1,5910
0.2518311,0.04153308,1.559327,4.081731,-0.3761902,-3.278351,1.794954,-0.0571856,0.00656558,0.998342,177.4691,0,1,5911
0.2718353,0.04147363,1.559339,4.08171,-0.3753052,-3.292786,1.791342,-0.05743727,0.006550207,0.9983276,177.4587,0,1,5912
0.2918396,0.04135779,1.559341,4.081659,-0.3652344,-3.326233,1.784375,-0.05802003,0.006374565,0.9982951,177.4437,0,1,5913
0.3118439,0.04113324,1.559308,4.081626,-0.3358765,-3.372864,1.745421,-0.05883238,0.00586233,0.9982507,177.4105,0,1,5914
0.3318329,0.04100371,1.559287,4.081616,-0.3161926,-3.379364,1.728588,-0.05894571,0.005518586,0.998246,177.3632,0,1,5915
0.3518372,0.04088288,1.559274,4.081619,-0.325531,-3.396912,1.710037,-0.05925188,0.005681559,0.9982269,177.3552,0,1,5916
0.3718414,0.0407428,1.559295,4.081639,-0.3107605,-3.386749,1.68461,-0.0590749,0.005423915,0.9982388,177.3369,0,1,5917
0.3918304,0.04036202,1.5593,4.081676,-0.3226624,-3.377228,1.691735,-0.05890869,0.00563136,0.9982475,177.3444,0,1,5918
0.4118347,0.04020223,1.55931,4.081706,-0.3006897,-3.367218,1.733991,-0.05873435,0.005247836,0.9982598,177.3481,0,1,5919
0.431839,0.04002265,1.559311,4.081762,-0.3007202,-3.355225,1.730554,-0.0585252,0.005248329,0.9982721,177.3557,0,1,5920
0.4518433,0.03981033,1.559293,4.081824,-0.292572,-3.337738,1.700142,-0.05822057,0.005106275,0.9982907,177.3645,0,1,5921
0.4718323,0.03943117,1.55928,4.081909,-0.2451782,-3.341888,1.673007,-0.05829353,0.004278949,0.9982903,177.3781,0,1,5922
0.4918365,0.03901641,1.559125,4.081957,-0.111145,-3.355133,1.711133,-0.05852442,0.001939737,0.9982841,177.3691,0,1,5923
0.5118408,0.03877975,1.559008,4.081975,-0.0920105,-3.340027,1.705103,-0.05826131,0.001605701,0.9983001,177.3505,0,1,5924
0.5318451,0.03854183,1.558946,4.082015,-0.08584595,-3.35788,1.740721,-0.05857237,0.001498464,0.998282,177.3617,0,1,5925
0.5518341,0.03808817,1.55888,4.082106,-0.06521606,-3.360077,1.797482,-0.05861099,0.0011383,0.9982802,177.3413,0,1,5926
0.5718384,0.03782471,1.558863,4.08214,-0.03213501,-3.373077,1.815301,-0.05883711,0.0005606006,0.9982674,177.3328,0,1,5927
0.5918427,0.03734717,1.558746,4.082128,0.05237488,-3.404419,1.839982,-0.05938323,-0.000914114,0.9982349,177.3171,0,1,5928
0.6118317,0.03711476,1.558668,4.08212,0.07818426,-3.413483,1.834018,-0.05954115,-0.001364572,0.9982249,177.2805,0,1,5929
0.6318359,0.03691159,1.558632,4.082094,0.1199098,-3.444061,1.853542,-0.06007363,-0.002092819,0.9981918,177.2687,0,1,5930
0.6518402,0.03652042,1.558585,4.082082,0.1187103,-3.461365,1.855737,-0.06037517,-0.002071884,0.9981736,177.2368,0,1,5931
0.6718445,0.03632341,1.558614,4.082056,0.1147588,-3.452423,1.833692,-0.06021951,-0.002002918,0.9981831,177.215,0,1,5932
0.6918335,0.03599375,1.558653,4.082002,0.1270019,-3.451477,1.86455,-0.06020318,-0.0022166,0.9981837,177.2206,0,1,5933
0.7118378,0.03586119,1.558668,4.081962,0.1172847,-3.429932,1.887485,-0.05982754,-0.002047002,0.9982066,177.2169,0,1,5934
0.731842,0.03556489,1.558693,4.081893,0.1057924,-3.403107,1.913611,-0.05936016,-0.001846425,0.9982349,177.2354,0,1,5935
0.7518311,0.03541265,1.558712,4.081869,0.07857539,-3.394196,1.932891,-0.05920536,-0.001371399,0.9982449,177.2568,0,1,5936
0.7718353,0.03506822,1.558789,4.081831,0.04052599,-3.403503,1.994622,-0.05936724,-0.0007073119,0.9982359,177.2633,0,1,5937
0.7918396,0.03488632,1.558808,4.081824,0.009926653,-3.418365,1.994985,-0.05962622,-0.0001732528,0.9982207,177.2497,0,1,5938
0.8118439,0.03474291,1.558847,4.08182,0.007274912,-3.428009,1.997942,-0.05979415,-0.0001269712,0.9982107,177.233,0,1,5939
0.8318329,0.03442945,1.558878,4.081813,0.001599251,-3.459198,2.039139,-0.06033777,-2.79122E-05,0.998178,177.2219,0,1,5940
0.8518372,0.03424358,1.558877,4.081824,0.0003331718,-3.457733,2.03679,-0.06031229,-5.814945E-06,0.9981796,177.1878,0,1,5941
0.8718414,0.03387396,1.558878,4.081907,-0.009429932,-3.472687,2.060672,-0.06057246,0.000164489,0.9981638,177.1865,0,1,5942
0.8918304,0.03368454,1.558879,4.08198,-0.01168823,-3.469086,2.080822,-0.06050982,0.0002037677,0.9981676,177.1674,0,1,5943
0.9118347,0.0333696,1.558864,4.08208,-0.005358097,-3.467194,2.120336,-0.06047722,9.351643E-05,0.9981696,177.168,0,1,5944
0.931839,0.03321631,1.558825,4.082186,0.007796521,-3.464111,2.134135,-0.0604235,-0.000136075,0.9981728,177.1655,0,1,5945
0.9518433,0.03307825,1.558809,4.082286,0.02205824,-3.449066,2.160354,-0.06016125,-0.0003849889,0.9981886,177.1662,0,1,5946
0.9718323,0.0328093,1.558759,4.082507,0.02507582,-3.442993,2.1799,-0.06005536,-0.0004376556,0.9981949,177.1785,0,1,5947
0.9918365,0.03267181,1.558743,4.082611,0.04983972,-3.439972,2.181215,-0.06000279,-0.0008698672,0.9981979,177.1809,0,1,5948
1.011841,0.03240312,1.558678,4.082859,0.06577706,-3.430298,2.190857,-0.059834,-0.001148026,0.9982077,177.1818,0,1,5949
1.031845,0.03229463,1.558631,4.083011,0.09116083,-3.430298,2.190837,-0.05983433,-0.001591056,0.998207,177.1873,0,1,5950
1.051834,0.03204779,1.558542,4.083377,0.131419,-3.414734,2.207197,-0.05956297,-0.002293692,0.9982219,177.1857,0,1,5951
1.071838,0.03191216,1.558519,4.083578,0.1504999,-3.41272,2.224089,-0.05952797,-0.002626716,0.9982232,177.1972,0,1,5952
1.091843,0.03165866,1.558429,4.08396,0.1832384,-3.401062,2.283617,-0.05932436,-0.003198108,0.9982336,177.1971,0,1,5953
1.111832,0.03153885,1.558442,4.084197,0.1847382,-3.40918,2.297627,-0.05946589,-0.003224284,0.9982252,177.2049,0,1,5954
1.131836,0.03142179,1.558467,4.084455,0.1803869,-3.397247,2.271571,-0.05925806,-0.003148341,0.9982377,177.1954,0,1,5955
1.15184,0.03123111,1.558477,4.084943,0.2069312,-3.395477,2.230463,-0.05922743,-0.003611624,0.998238,177.2053,0,1,5956
1.171844,0.03114927,1.558428,4.085195,0.2491281,-3.401093,2.23468,-0.05932485,-0.004348092,0.9982293,177.2043,0,1,5957
1.191833,0.03096948,1.558308,4.085695,0.3128156,-3.371338,2.223333,-0.05880637,-0.005459635,0.9982545,177.198,0,1,5958
1.211838,0.03091097,1.558246,4.08595,0.3275621,-3.363129,2.225224,-0.05866283,-0.005717006,0.9982615,177.2238,0,1,5959
1.231842,0.0308625,1.558208,4.086235,0.3278835,-3.37912,2.238714,-0.05894141,-0.005722616,0.9982451,177.2309,0,1,5960
1.251831,0.03074569,1.558253,4.086905,0.3093166,-3.377838,2.262928,-0.05891917,-0.005398566,0.9982482,177.2151,0,1,5961
1.271835,0.03057669,1.558174,4.08748,0.341513,-3.387665,2.269318,-0.05909064,-0.005960491,0.9982348,177.2148,0,1,5962
1.29184,0.03046487,1.558093,4.08777,0.3752805,-3.404358,2.248914,-0.05938092,-0.006549833,0.9982139,177.2031,0,1,5963
1.311844,0.03038265,1.558004,4.088127,0.4064957,-3.3992,2.242405,-0.0592907,-0.00709463,0.9982156,177.1857,0,1,5964
1.331833,0.03027788,1.558015,4.088745,0.4270366,-3.434174,2.248267,-0.05989988,-0.007453126,0.9981766,177.1894,0,1,5965
1.351837,0.03011657,1.557978,4.089366,0.4376978,-3.441833,2.209844,-0.06003324,-0.007639193,0.9981672,177.1548,0,1,5966
1.371841,0.03001111,1.558072,4.08967,0.4312373,-3.432312,2.214787,-0.05986758,-0.007526439,0.9981779,177.1453,0,1,5967
1.39183,0.02998399,1.558062,4.089953,0.4374988,-3.428009,2.23453,-0.0597927,-0.007635721,0.9981816,177.153,0,1,5968
1.411835,0.02989014,1.557932,4.090326,0.4245138,-3.429779,2.248128,-0.05982348,-0.007409096,0.9981815,177.1568,0,1,5969
1.431839,0.0297071,1.557967,4.090956,0.4292375,-3.405151,2.248691,-0.0593944,-0.007491537,0.9982065,177.1538,0,1,5970
1.451843,0.02960396,1.557927,4.09164,0.4247721,-3.401764,2.247572,-0.05933529,-0.007413603,0.9982106,177.1747,0,1,5971
1.471832,0.02951673,1.557915,4.091986,0.4159063,-3.395386,2.236591,-0.05922416,-0.00725887,0.9982183,177.1766,0,1,5972
1.491837,0.02946949,1.557864,4.092342,0.4332388,-3.387207,2.227766,-0.05908155,-0.007561371,0.9982245,177.1815,0,1,5973
1.511841,0.0294105,1.557847,4.09266,0.4362044,-3.381836,2.220195,-0.05898825,-0.007613129,0.9982296,177.1885,0,1,5974
1.531845,0.02923507,1.557741,4.093723,0.4740548,-3.334808,2.221036,-0.05816828,-0.008273724,0.9982725,177.1931,0,1,5975
1.551834,0.02923101,1.557748,4.094086,0.4775066,-3.311951,2.22757,-0.05777009,-0.008333966,0.9982951,177.2354,0,1,5976
1.571838,0.02913029,1.557729,4.09444,0.4887379,-3.294861,2.238489,-0.05747252,-0.008529982,0.9983106,177.2573,0,1,5977
1.591843,0.02898633,1.557686,4.094805,0.4886088,-3.281586,2.249582,-0.05724118,-0.008527729,0.998324,177.2719,0,1,5978
1.611832,0.02878639,1.557608,4.095646,0.4961063,-3.286041,2.258343,-0.05731879,-0.00865858,0.9983184,177.2828,0,1,5979
1.631836,0.02855846,1.557524,4.096486,0.4987484,-3.29483,2.270219,-0.05747194,-0.008704691,0.9983092,177.2759,0,1,5980
1.65184,0.02842321,1.557477,4.097011,0.5037454,-3.314178,2.270041,-0.05780881,-0.008791902,0.9982889,177.2644,0,1,5981
1.671844,0.02823901,1.557485,4.097478,0.5011787,-3.344482,2.262129,-0.05833693,-0.008747106,0.9982587,177.2444,0,1,5982
1.691833,0.02813073,1.55742,4.097951,0.5120794,-3.363556,2.27884,-0.05866925,-0.008937352,0.9982375,177.2128,0,1,5983
1.711838,0.02761357,1.557212,4.099667,0.5429564,-3.385773,2.280818,-0.05905584,-0.009476235,0.9982097,177.1933,0,1,5984
1.731842,0.02744056,1.557291,4.100223,0.5582283,-3.385956,2.30122,-0.05905873,-0.009742768,0.998207,177.1652,0,1,5985
1.751831,0.02726071,1.557314,4.100985,0.5622898,-3.372589,2.308082,-0.05882599,-0.009813651,0.99822,177.1627,0,1,5986
1.771835,0.02702115,1.557289,4.101687,0.5606406,-3.359589,2.328555,-0.05859957,-0.009784864,0.9982336,177.1731,0,1,5987
1.79184,0.02685894,1.557136,4.102442,0.5757051,-3.344971,2.37483,-0.05834444,-0.01004778,0.998246,177.1821,0,1,5988
1.811844,0.02605452,1.556985,4.104848,0.6791919,-3.32962,2.364365,-0.05807586,-0.01185386,0.9982418,177.1938,0,1,5989
1.831833,0.02565885,1.556851,4.105729,0.7516351,-3.322296,2.307845,-0.05794754,-0.01311813,0.9982334,177.1974,0,1,5990
1.851837,0.025309,1.556731,4.106664,0.8144156,-3.332031,2.313095,-0.05811602,-0.01421375,0.9982086,177.1991,0,1,5991
1.871841,0.02490053,1.556557,4.107595,0.8931041,-3.339661,2.330965,-0.05824823,-0.01558697,0.9981804,177.185,0,1,5992
1.89183,0.0244891,1.556285,4.108513,0.9907186,-3.328217,2.348637,-0.05804698,-0.01729044,0.9981641,177.1722,0,1,5993
1.911835,0.02314274,1.555749,4.111438,1.258003,-3.313477,2.430766,-0.0577849,-0.02195454,0.9980876,177.1772,0,1,5994
1.931839,0.02256135,1.555552,4.112504,1.348994,-3.322083,2.477969,-0.05793251,-0.02354221,0.9980429,177.1727,0,1,5995
1.951843,0.0220004,1.555415,4.113539,1.434478,-3.339874,2.511233,-0.0582407,-0.02503375,0.9979886,177.1568,0,1,5996
1.971832,0.0214324,1.555206,4.114511,1.520351,-3.387665,2.535756,-0.05907046,-0.02653202,0.9979011,177.1319,0,1,5997
1.991837,0.01956065,1.554715,4.117388,1.773379,-3.518555,2.585238,-0.06134258,-0.03094636,0.9976369,177.0788,0,1,5998
2.011841,0.01894201,1.554662,4.118412,1.828371,-3.596008,2.597304,-0.06268931,-0.03190568,0.997523,176.9282,0,1,5999
2.031845,0.01823284,1.554583,4.119321,1.868914,-3.631836,2.617916,-0.06331124,-0.03261291,0.9974608,176.846,0,1,6000
2.051834,0.01750157,1.554533,4.120376,1.87329,-3.676361,2.613697,-0.06408647,-0.03268925,0.9974088,176.8021,0,1,6001
2.071838,0.01676258,1.554511,4.121369,1.881414,-3.687805,2.632041,-0.06428534,-0.03283096,0.9973913,176.7495,0,1,6002
2.091843,0.01438679,1.554261,4.124286,1.913744,-3.760956,2.667015,-0.06555715,-0.03339493,0.9972898,176.7283,0,1,6003
2.111832,0.01363979,1.554114,4.125271,1.911936,-3.815216,2.738657,-0.06650187,-0.03336339,0.9972283,176.6258,0,1,6004
2.131836,0.01272824,1.55406,4.126205,1.958054,-3.846771,2.781318,-0.06704915,-0.03416784,0.9971645,176.5636,0,1,6005
2.15184,0.0118224,1.553899,4.127248,1.971009,-3.906799,2.811158,-0.06809314,-0.03439381,0.9970859,176.5209,0,1,6006
2.171844,0.009927757,1.553767,4.129293,2.002494,-4.009949,2.843302,-0.06988682,-0.034943,0.9969428,176.4513,0,1,6007
2.191833,0.007924087,1.553627,4.131253,2.019044,-4.125549,2.858926,-0.07189747,-0.03523167,0.9967896,176.3266,0,1,6008
2.211838,0.006886527,1.553555,4.132221,2.019507,-4.183899,2.862503,-0.07291251,-0.03523974,0.9967155,176.1887,0,1,6009
2.231842,0.005870849,1.553521,4.133183,2.042444,-4.240234,2.901153,-0.0738916,-0.03563982,0.9966292,176.1186,0,1,6010
2.251831,0.003811315,1.553445,4.13526,2.052706,-4.331238,2.952589,-0.07547385,-0.03581881,0.9965042,176.0507,0,1,6011
2.271835,0.002670355,1.553428,4.136354,2.055184,-4.362061,2.993864,-0.07600991,-0.03586203,0.9964619,175.9354,0,1,6012
2.29184,0.0005173087,1.553432,4.13841,2.047803,-4.433319,3.069552,-0.07724941,-0.03573329,0.9963713,175.89,0,1,6013
2.311844,-0.0005606636,1.553411,4.139493,2.034143,-4.462372,3.103782,-0.07775534,-0.03549504,0.9963404,175.792,0,1,6014
2.331833,-0.002768263,1.553406,4.141608,2.056648,-4.515259,3.167271,-0.07867381,-0.03588758,0.9962543,175.7491,0,1,6015
2.351837,-0.003812917,1.553226,4.14276,2.059311,-4.553345,3.200214,-0.07933622,-0.03593402,0.9962,175.6679,0,1,6016
2.371841,-0.004914157,1.553101,4.143923,2.061041,-4.566559,3.229453,-0.07956546,-0.03596419,0.9961807,175.6169,0,1,6017
2.39183,-0.00727962,1.552789,4.146377,2.089704,-4.605499,3.267061,-0.0802411,-0.03646413,0.9961083,175.5889,0,1,6018
2.411835,-0.009623602,1.552335,4.148839,2.12287,-4.670105,3.309232,-0.08136254,-0.03704259,0.995996,175.5186,0,1,6019
2.431839,-0.0108592,1.552191,4.150054,2.191784,-4.700165,3.331286,-0.08188158,-0.03824452,0.995908,175.4239,0,1,6020
2.451843,-0.01206791,1.551997,4.151339,2.247557,-4.732941,3.320474,-0.08244791,-0.0392172,0.9958234,175.3779,0,1,6021
2.471832,-0.01327894,1.551759,4.152572,2.30744,-4.760071,3.326041,-0.08291586,-0.04026154,0.9957429,175.3297,0,1,6022
2.491837,-0.01573913,1.551456,4.155009,2.393712,-4.832062,3.344888,-0.08416179,-0.041766,0.9955764,175.2867,0,1,6023
2.511841,-0.01821036,1.551288,4.157553,2.423744,-4.889343,3.331459,-0.08515561,-0.0422897,0.9954698,175.1834,0,1,6024
2.531845,-0.01949469,1.551396,4.158795,2.394738,-4.91861,3.27176,-0.08566549,-0.0417839,0.9954474,175.0939,0,1,6025
2.551834,-0.02077511,1.55143,4.159978,2.386149,-4.923401,3.244035,-0.08574966,-0.04163412,0.9954464,175.0479,0,1,6026
2.571838,-0.02203789,1.551307,4.161174,2.366975,-4.926636,3.222821,-0.08580698,-0.04129976,0.9954554,175.0252,0,1,6027
2.591843,-0.02562129,1.551118,4.164458,2.409765,-4.923584,3.218335,-0.08575094,-0.04204594,0.995429,175.0042,0,1,6028
2.611832,-0.02678591,1.551028,4.165538,2.428315,-4.915558,3.206268,-0.08561043,-0.04236941,0.9954274,174.9561,0,1,6029
2.631836,-0.02803068,1.550998,4.166579,2.429593,-4.907501,3.184265,-0.08547044,-0.04239169,0.9954385,174.9472,0,1,6030
2.65184,-0.02910902,1.550859,4.167578,2.44663,-4.896301,3.164631,-0.08527503,-0.04268878,0.9954425,174.9371,0,1,6031
2.671844,-0.0311594,1.550735,4.169496,2.465632,-4.899689,3.106026,-0.08533236,-0.04302011,0.9954234,174.9323,0,1,6032
2.691833,-0.0331444,1.55062,4.171426,2.49183,-4.928101,3.080531,-0.08582446,-0.04347693,0.9953612,174.9,0,1,6033
2.711838,-0.03401557,1.550698,4.172426,2.508461,-4.939026,3.077307,-0.08601308,-0.04376691,0.9953322,174.8446,0,1,6034
2.731842,-0.03480833,1.550645,4.173528,2.487811,-4.948608,3.042936,-0.0861811,-0.04340684,0.9953334,174.8217,0,1,6035
2.751831,-0.03556431,1.550484,4.174609,2.468649,-4.93985,2.985078,-0.08603016,-0.04307272,0.995361,174.8013,0,1,6036
2.771835,-0.03737031,1.549762,4.177768,2.385252,-4.910187,2.784464,-0.08552004,-0.04161849,0.9954668,174.7988,0,1,6037
2.79184,-0.03770164,1.549376,4.178799,2.365462,-4.882446,2.752317,-0.08503921,-0.04127338,0.9955224,174.801,0,1,6038
2.811844,-0.03800489,1.54907,4.180114,2.336578,-4.839752,2.765737,-0.08429915,-0.04076968,0.9956061,174.8226,0,1,6039
2.831833,-0.0382115,1.54911,4.181461,2.342039,-4.803436,2.832644,-0.08366787,-0.04086491,0.9956554,174.8589,0,1,6040
2.851837,-0.03842676,1.548783,4.184078,2.369589,-4.694,2.969223,-0.08176427,-0.04134535,0.9957938,174.8903,0,1,6041
2.871841,-0.03832066,1.54863,4.186533,2.545078,-4.61496,3.042446,-0.08037995,-0.04440539,0.9957747,174.991,0,1,6042
2.89183,-0.03814653,1.548681,4.187818,2.691789,-4.562836,3.073593,-0.07946458,-0.04696329,0.9957308,175.0674,0,1,6043
2.911835,-0.0378639,1.5487,4.189204,2.804749,-4.537689,3.061114,-0.07902034,-0.04893256,0.9956713,175.1193,0,1,6044
2.931839,-0.03766186,1.548723,4.190728,2.884517,-4.501923,3.022306,-0.07839325,-0.05032306,0.9956516,175.1471,0,1,6045
2.951843,-0.03658123,1.548621,4.195245,2.92654,-4.438232,2.881031,-0.07728358,-0.05105556,0.9957011,175.1839,0,1,6046
2.971832,-0.0359257,1.548493,4.196917,2.860963,-4.421906,2.804461,-0.07700413,-0.04991247,0.9957806,175.2595,0,1,6047
2.991837,-0.03520603,1.548192,4.198483,2.832681,-4.399353,2.725951,-0.0766138,-0.04941947,0.9958354,175.2842,0,1,6048
3.011841,-0.0344401,1.547825,4.200139,2.820982,-4.379303,2.671467,-0.07626615,-0.04921553,0.9958721,175.316,0,1,6049
3.031845,-0.03364054,1.547518,4.201818,2.839751,-4.378448,2.628706,-0.07625036,-0.04954273,0.9958571,175.3458,0,1,6050
3.051834,-0.03073502,1.546804,4.207129,2.914244,-4.375214,2.559861,-0.07618889,-0.05084121,0.9957964,175.358,0,1,6051
3.071838,-0.02938721,1.546526,4.209034,2.92831,-4.400726,2.564666,-0.07663158,-0.05108642,0.9957498,175.4024,0,1,6052
3.091843,-0.02803044,1.546155,4.21092,2.954158,-4.429779,2.545411,-0.07713444,-0.05153694,0.9956878,175.3974,0,1,6053
3.111832,-0.02649425,1.545856,4.212808,2.976447,-4.458405,2.534708,-0.07763053,-0.05192544,0.9956291,175.3891,0,1,6054
3.131836,-0.02146119,1.545731,4.218891,3.013281,-4.541626,2.386191,-0.07907405,-0.05256743,0.9954818,175.3839,0,1,6055
3.15184,-0.01941773,1.545699,4.221085,2.930907,-4.555206,2.244464,-0.07931577,-0.05113167,0.9955373,175.3771,0,1,6056
3.171844,-0.01728316,1.545662,4.223409,2.839651,-4.572052,2.138647,-0.07961476,-0.04954098,0.9955939,175.3936,0,1,6057
3.191833,-0.01510905,1.545675,4.225839,2.731423,-4.593353,2.07837,-0.07999207,-0.04765427,0.9956557,175.4084,0,1,6058
3.211838,-0.01285419,1.545548,4.228316,2.581291,-4.634033,2.00932,-0.08070906,-0.04503679,0.9957197,175.4195,0,1,6059
3.231842,-0.005767837,1.544886,4.235758,2.244488,-4.81781,1.715702,-0.08392327,-0.0391637,0.9957023,175.4134,0,1,6060
3.251831,-0.003338739,1.544955,4.238371,2.241895,-4.903564,1.612831,-0.0854134,-0.03911846,0.9955774,175.3415,0,1,6061
3.271835,-0.0008308589,1.545504,4.241008,2.316139,-5.00946,1.523492,-0.08724893,-0.04041324,0.9953665,175.2953,0,1,6062
3.29184,0.00163871,1.546333,4.243829,2.422373,-5.071747,1.418418,-0.08832388,-0.04226578,0.9951947,175.2311,0,1,6063
3.311844,0.004184164,1.547284,4.246659,2.425545,-5.147949,1.316109,-0.08964769,-0.0423211,0.995074,175.2079,0,1,6064
3.331833,0.01155792,1.548382,4.255113,2.198348,-5.370422,1.053437,-0.09352525,-0.038359,0.9948777,175.1726,0,1,6065
